fid, fiv, hid, hiv, batt, hr, hbn, hbts1, hbts2, hbts3, hbts4, hbts5, hbts6, hbts7, hbts8, hbts9, hbts10, hbts11, hbts12, hbts13, hbts14, hbts15, distance, speed, strides
26,1f,80,vd,100,92,91,36225,35565,34341,33697,33073,31833,31249,30633,30017,29361,28137,27509,26853,25605,24969,1842,356,2
26,1f,80,vd,100,92,92,36821,36225,35565,34341,33697,33073,31833,31249,30633,30017,29361,28137,27509,26853,25605,1842,356,2
26,1f,80,vd,100,92,93,38073,36821,36225,35565,34341,33697,33073,31833,31249,30633,30017,29361,28137,27509,26853,1888,356,4
26,1f,80,vd,100,93,95,39325,38705,38073,36821,36225,35565,34341,33697,33073,31833,31249,30633,30017,29361,28137,1888,356,4
26,1f,80,vd,100,93,95,39325,38705,38073,36821,36225,35565,34341,33697,33073,31833,31249,30633,30017,29361,28137,1947,456,6
26,1f,80,vd,100,93,97,41221,40573,39325,38705,38073,36821,36225,35565,34341,33697,33073,31833,31249,30633,30017,1947,456,6
26,1f,80,vd,100,93,98,41813,41221,40573,39325,38705,38073,36821,36225,35565,34341,33697,33073,31833,31249,30633,1994,356,8
26,1f,80,vd,100,93,99,43053,41813,41221,40573,39325,38705,38073,36821,36225,35565,34341,33697,33073,31833,31249,1994,356,8
26,1f,80,vd,100,93,101,44309,43697,43053,41813,41221,40573,39325,38705,38073,36821,36225,35565,34341,33697,33073,2040,356,10
26,1f,80,vd,100,93,102,45513,44309,43697,43053,41813,41221,40573,39325,38705,38073,36821,36225,35565,34341,33697,2040,356,10
26,1f,80,vd,100,93,103,46161,45513,44309,43697,43053,41813,41221,40573,39325,38705,38073,36821,36225,35565,34341,2086,356,12
26,1f,80,vd,100,93,104,46749,46161,45513,44309,43697,43053,41813,41221,40573,39325,38705,38073,36821,36225,35565,2086,356,12
26,1f,80,vd,100,93,105,47993,46749,46161,45513,44309,43697,43053,41813,41221,40573,39325,38705,38073,36821,36225,2133,356,14
26,1f,80,vd,100,93,107,49261,48617,47993,46749,46161,45513,44309,43697,43053,41813,41221,40573,39325,38705,38073,2133,356,14
26,1f,80,vd,100,93,108,50493,49261,48617,47993,46749,46161,45513,44309,43697,43053,41813,41221,40573,39325,38705,2192,456,17
26,1f,80,vd,100,93,109,51117,50493,49261,48617,47993,46749,46161,45513,44309,43697,43053,41813,41221,40573,39325,2192,456,17
26,1f,80,vd,100,93,110,51765,51117,50493,49261,48617,47993,46749,46161,45513,44309,43697,43053,41813,41221,40573,2238,356,19
26,1f,80,vd,100,93,111,52989,51765,51117,50493,49261,48617,47993,46749,46161,45513,44309,43697,43053,41813,41221,2238,356,19
26,1f,80,vd,100,93,113,54249,53625,52989,51765,51117,50493,49261,48617,47993,46749,46161,45513,44309,43697,43053,2285,356,21
26,1f,80,vd,100,93,114,55501,54249,53625,52989,51765,51117,50493,49261,48617,47993,46749,46161,45513,44309,43697,2285,356,21
26,1f,80,vd,100,93,115,56133,55501,54249,53625,52989,51765,51117,50493,49261,48617,47993,46749,46161,45513,44309,2344,456,23
26,1f,80,vd,100,93,116,56757,56133,55501,54249,53625,52989,51765,51117,50493,49261,48617,47993,46749,46161,45513,2344,456,23
26,1f,80,vd,100,93,117,58025,56757,56133,55501,54249,53625,52989,51765,51117,50493,49261,48617,47993,46749,46161,2395,406,25
26,1f,80,vd,100,94,119,59285,58661,58025,56757,56133,55501,54249,53625,52989,51765,51117,50493,49261,48617,47993,2395,406,25
26,1f,80,vd,100,94,120,60537,59285,58661,58025,56757,56133,55501,54249,53625,52989,51765,51117,50493,49261,48617,2448,406,27
26,1f,80,vd,100,94,121,61165,60537,59285,58661,58025,56757,56133,55501,54249,53625,52989,51765,51117,50493,49261,2448,406,27
26,1f,80,vd,100,94,122,61805,61165,60537,59285,58661,58025,56757,56133,55501,54249,53625,52989,51765,51117,50493,2501,406,29
26,1f,80,vd,100,94,123,63021,61805,61165,60537,59285,58661,58025,56757,56133,55501,54249,53625,52989,51765,51117,2501,406,29
26,1f,80,vd,100,94,125,64277,63665,63021,61805,61165,60537,59285,58661,58025,56757,56133,55501,54249,53625,52989,2554,406,31
26,1f,80,vd,100,94,126,65473,64277,63665,63021,61805,61165,60537,59285,58661,58025,56757,56133,55501,54249,53625,2554,406,31
26,1f,80,vd,100,94,126,65473,64277,63665,63021,61805,61165,60537,59285,58661,58025,56757,56133,55501,54249,53625,2619,512,34
26,1f,80,vd,100,94,128,1805,1169,65473,64277,63665,63021,61805,61165,60537,59285,58661,58025,56757,56133,55501,2619,512,34
26,1f,80,vd,100,94,129,2409,1805,1169,65473,64277,63665,63021,61805,61165,60537,59285,58661,58025,56757,56133,2666,356,36
26,1f,80,vd,100,94,131,3617,3013,2409,1805,1169,65473,64277,63665,63021,61805,61165,60537,59285,58661,58025,2666,356,36
26,1f,80,vd,99,94,132,4793,3617,3013,2409,1805,1169,65473,64277,63665,63021,61805,61165,60537,59285,58661,2712,356,38
26,1f,80,vd,100,95,133,5397,4793,3617,3013,2409,1805,1169,65473,64277,63665,63021,61805,61165,60537,59285,2712,356,38
26,1f,80,vd,100,95,134,6025,5397,4793,3617,3013,2409,1805,1169,65473,64277,63665,63021,61805,61165,60537,2758,356,40
26,1f,80,vd,100,95,136,7853,7217,6025,5397,4793,3617,3013,2409,1805,1169,65473,64277,63665,63021,61805,2758,356,40
26,1f,80,vd,100,95,137,8437,7853,7217,6025,5397,4793,3617,3013,2409,1805,1169,65473,64277,63665,63021,2805,356,42
26,1f,80,vd,100,95,138,9661,8437,7853,7217,6025,5397,4793,3617,3013,2409,1805,1169,65473,64277,63665,2805,356,42
26,1f,80,vd,100,95,140,10917,10277,9661,8437,7853,7217,6025,5397,4793,3617,3013,2409,1805,1169,65473,2864,456,44
26,1f,80,vd,100,95,141,11529,10917,10277,9661,8437,7853,7217,6025,5397,4793,3617,3013,2409,1805,1169,2864,456,44
26,1f,80,vd,100,95,142,12113,11529,10917,10277,9661,8437,7853,7217,6025,5397,4793,3617,3013,2409,1805,2910,356,46
26,1f,80,vd,100,95,144,13977,13341,12113,11529,10917,10277,9661,8437,7853,7217,6025,5397,4793,3617,3013,2910,356,46
26,1f,80,vd,100,95,145,14589,13977,13341,12113,11529,10917,10277,9661,8437,7853,7217,6025,5397,4793,3617,2957,356,48
26,1f,80,vd,100,95,146,15793,14589,13977,13341,12113,11529,10917,10277,9661,8437,7853,7217,6025,5397,4793,2957,356,48
26,1f,80,vd,100,95,147,16433,15793,14589,13977,13341,12113,11529,10917,10277,9661,8437,7853,7217,6025,5397,3003,356,50
26,1f,80,vd,100,95,149,17661,17049,16433,15793,14589,13977,13341,12113,11529,10917,10277,9661,8437,7853,7217,3003,356,50
26,1f,80,vd,100,95,150,18269,17661,17049,16433,15793,14589,13977,13341,12113,11529,10917,10277,9661,8437,7853,3062,456,53
26,1f,80,vd,100,96,151,19469,18269,17661,17049,16433,15793,14589,13977,13341,12113,11529,10917,10277,9661,8437,3062,456,53
26,1f,80,vd,100,96,153,20689,20109,19469,18269,17661,17049,16433,15793,14589,13977,13341,12113,11529,10917,10277,3109,356,55
26,1f,80,vd,100,96,154,21913,20689,20109,19469,18269,17661,17049,16433,15793,14589,13977,13341,12113,11529,10917,3109,356,55
26,1f,80,vd,100,96,155,22525,21913,20689,20109,19469,18269,17661,17049,16433,15793,14589,13977,13341,12113,11529,3155,356,57
26,1f,80,vd,100,96,156,23157,22525,21913,20689,20109,19469,18269,17661,17049,16433,15793,14589,13977,13341,12113,3155,356,57
26,1f,80,vd,100,96,157,24341,23157,22525,21913,20689,20109,19469,18269,17661,17049,16433,15793,14589,13977,13341,3202,356,59
26,1f,80,vd,100,95,158,25561,24341,23157,22525,21913,20689,20109,19469,18269,17661,17049,16433,15793,14589,13977,3202,356,59
26,1f,80,vd,100,95,160,26797,26193,25561,24341,23157,22525,21913,20689,20109,19469,18269,17661,17049,16433,15793,3261,456,61
26,1f,80,vd,100,95,161,27397,26797,26193,25561,24341,23157,22525,21913,20689,20109,19469,18269,17661,17049,16433,3261,456,61
26,1f,80,vd,100,95,162,28573,27397,26797,26193,25561,24341,23157,22525,21913,20689,20109,19469,18269,17661,17049,3307,356,63
26,1f,80,vd,100,95,164,29773,29177,28573,27397,26797,26193,25561,24341,23157,22525,21913,20689,20109,19469,18269,3307,356,63
26,1f,80,vd,100,96,165,30973,29773,29177,28573,27397,26797,26193,25561,24341,23157,22525,21913,20689,20109,19469,3354,356,65
26,1f,80,vd,100,96,166,31601,30973,29773,29177,28573,27397,26797,26193,25561,24341,23157,22525,21913,20689,20109,3354,356,65
26,1f,80,vd,100,96,167,32201,31601,30973,29773,29177,28573,27397,26797,26193,25561,24341,23157,22525,21913,20689,3400,356,67
26,1f,80,vd,100,96,169,33973,33373,32201,31601,30973,29773,29177,28573,27397,26797,26193,25561,24341,23157,22525,3400,356,67
26,1f,80,vd,100,96,170,34593,33973,33373,32201,31601,30973,29773,29177,28573,27397,26797,26193,25561,24341,23157,3446,356,69
26,1f,80,vd,100,96,171,35757,34593,33973,33373,32201,31601,30973,29773,29177,28573,27397,26797,26193,25561,24341,3446,356,69
26,1f,80,vd,100,96,173,36949,36353,35757,34593,33973,33373,32201,31601,30973,29773,29177,28573,27397,26797,26193,3504,456,72
26,1f,80,vd,100,96,173,36949,36353,35757,34593,33973,33373,32201,31601,30973,29773,29177,28573,27397,26797,26193,3504,456,72
26,1f,80,vd,100,96,175,38737,38141,36949,36353,35757,34593,33973,33373,32201,31601,30973,29773,29177,28573,27397,3550,356,74
26,1f,80,vd,100,97,176,39353,38737,38141,36949,36353,35757,34593,33973,33373,32201,31601,30973,29773,29177,28573,3550,356,74
26,1f,80,vd,100,97,177,40513,39353,38737,38141,36949,36353,35757,34593,33973,33373,32201,31601,30973,29773,29177,3597,356,76
26,1f,80,vd,100,97,178,41693,40513,39353,38737,38141,36949,36353,35757,34593,33973,33373,32201,31601,30973,29773,3597,356,76
26,1f,80,vd,100,96,180,42901,42317,41693,40513,39353,38737,38141,36949,36353,35757,34593,33973,33373,32201,31601,3643,356,78
26,1f,80,vd,100,97,180,42901,42317,41693,40513,39353,38737,38141,36949,36353,35757,34593,33973,33373,32201,31601,3643,356,78
26,1f,80,vd,100,96,181,44045,42901,42317,41693,40513,39353,38737,38141,36949,36353,35757,34593,33973,33373,32201,3690,356,80
26,1f,80,vd,100,96,183,45801,45217,44045,42901,42317,41693,40513,39353,38737,38141,36949,36353,35757,34593,33973,3690,356,80
26,1f,80,vd,100,96,185,46989,46409,45801,45217,44045,42901,42317,41693,40513,39353,38737,38141,36949,36353,35757,3749,456,82
26,1f,80,vd,100,97,186,47569,46989,46409,45801,45217,44045,42901,42317,41693,40513,39353,38737,38141,36949,36353,3749,456,82
26,1f,80,vd,100,97,187,48697,47569,46989,46409,45801,45217,44045,42901,42317,41693,40513,39353,38737,38141,36949,3795,356,84
26,1f,80,vd,100,97,188,49861,48697,47569,46989,46409,45801,45217,44045,42901,42317,41693,40513,39353,38737,38141,3795,356,84
26,1f,80,vd,100,97,189,50465,49861,48697,47569,46989,46409,45801,45217,44045,42901,42317,41693,40513,39353,38737,3854,456,87
26,1f,80,vd,100,97,191,51597,51045,50465,49861,48697,47569,46989,46409,45801,45217,44045,42901,42317,41693,40513,3854,456,87
26,1f,80,vd,100,98,192,52753,51597,51045,50465,49861,48697,47569,46989,46409,45801,45217,44045,42901,42317,41693,3907,406,89
26,1f,80,vd,100,98,194,53925,53353,52753,51597,51045,50465,49861,48697,47569,46989,46409,45801,45217,44045,42901,3907,406,89
26,1f,80,vd,100,98,194,53925,53353,52753,51597,51045,50465,49861,48697,47569,46989,46409,45801,45217,44045,42901,3974,537,91
26,1f,80,vd,100,99,195,55053,53925,53353,52753,51597,51045,50465,49861,48697,47569,46989,46409,45801,45217,44045,3974,537,91
26,1f,80,vd,100,99,197,56785,56205,55053,53925,53353,52753,51597,51045,50465,49861,48697,47569,46989,46409,45801,4027,406,93
26,1f,80,vd,100,99,199,57937,57385,56785,56205,55053,53925,53353,52753,51597,51045,50465,49861,48697,47569,46989,4027,406,93
26,1f,80,vd,100,99,200,58537,57937,57385,56785,56205,55053,53925,53353,52753,51597,51045,50465,49861,48697,47569,4094,537,96
26,1f,80,vd,100,100,201,59113,58537,57937,57385,56785,56205,55053,53925,53353,52753,51597,51045,50465,49861,48697,4094,537,96
26,1f,80,vd,100,100,202,60241,59113,58537,57937,57385,56785,56205,55053,53925,53353,52753,51597,51045,50465,49861,51,406,98
26,1f,80,vd,100,100,204,61965,61389,60241,59113,58537,57937,57385,56785,56205,55053,53925,53353,52753,51597,51045,51,406,98
26,1f,80,vd,100,101,205,62561,61965,61389,60241,59113,58537,57937,57385,56785,56205,55053,53925,53353,52753,51597,118,537,100
26,1f,80,vd,100,101,206,63137,62561,61965,61389,60241,59113,58537,57937,57385,56785,56205,55053,53925,53353,52753,118,537,100
26,1f,80,vd,100,101,207,64257,63137,62561,61965,61389,60241,59113,58537,57937,57385,56785,56205,55053,53925,53353,171,406,102
26,1f,80,vd,100,101,208,65413,64257,63137,62561,61965,61389,60241,59113,58537,57937,57385,56785,56205,55053,53925,171,406,102
26,1f,80,vd,100,101,210,1029,481,65413,64257,63137,62561,61965,61389,60241,59113,58537,57937,57385,56785,56205,237,512,105
26,1f,80,vd,100,101,211,1601,1029,481,65413,64257,63137,62561,61965,61389,60241,59113,58537,57937,57385,56785,237,512,105
26,1f,80,vd,100,101,213,3369,2761,1601,1029,481,65413,64257,63137,62561,61965,61389,60241,59113,58537,57937,290,406,107
26,1f,80,vd,100,101,214,3921,3369,2761,1601,1029,481,65413,64257,63137,62561,61965,61389,60241,59113,58537,290,406,107
26,1f,80,vd,100,101,215,5089,3921,3369,2761,1601,1029,481,65413,64257,63137,62561,61965,61389,60241,59113,357,537,109
26,1f,80,vd,100,101,217,6277,5673,5089,3921,3369,2761,1601,1029,481,65413,64257,63137,62561,61965,61389,357,537,109
26,1f,80,vd,100,101,218,7413,6277,5673,5089,3921,3369,2761,1601,1029,481,65413,64257,63137,62561,61965,424,537,112
26,1f,80,vd,100,101,218,7413,6277,5673,5089,3921,3369,2761,1601,1029,481,65413,64257,63137,62561,61965,424,537,112
26,1f,80,vd,100,100,220,9161,8577,7413,6277,5673,5089,3921,3369,2761,1601,1029,481,65413,64257,63137,477,406,114
26,1f,80,vd,99,100,221,9769,9161,8577,7413,6277,5673,5089,3921,3369,2761,1601,1029,481,65413,64257,477,406,114
26,1f,80,vd,100,100,222,10893,9769,9161,8577,7413,6277,5673,5089,3921,3369,2761,1601,1029,481,65413,544,537,116
26,1f,80,vd,100,100,224,12069,11473,10893,9769,9161,8577,7413,6277,5673,5089,3921,3369,2761,1601,1029,544,537,116
26,1f,80,vd,100,100,226,13217,12645,12069,11473,10893,9769,9161,8577,7413,6277,5673,5089,3921,3369,2761,597,406,118
26,1f,80,vd,100,100,227,13781,13217,12645,12069,11473,10893,9769,9161,8577,7413,6277,5673,5089,3921,3369,597,406,118
26,1f,80,vd,100,101,228,14889,13781,13217,12645,12069,11473,10893,9769,9161,8577,7413,6277,5673,5089,3921,664,537,121
26,1f,80,vd,100,102,229,16017,14889,13781,13217,12645,12069,11473,10893,9769,9161,8577,7413,6277,5673,5089,664,537,121
26,1f,80,vd,100,102,231,17141,16577,16017,14889,13781,13217,12645,12069,11473,10893,9769,9161,8577,7413,6277,717,406,123
26,1f,80,vd,100,103,232,18265,17141,16577,16017,14889,13781,13217,12645,12069,11473,10893,9769,9161,8577,7413,717,406,123
26,1f,80,vd,100,103,233,19381,18265,17141,16577,16017,14889,13781,13217,12645,12069,11473,10893,9769,9161,8577,784,537,125
26,1f,80,vd,100,103,234,19937,19381,18265,17141,16577,16017,14889,13781,13217,12645,12069,11473,10893,9769,9161,784,537,125
26,1f,80,vd,100,103,236,21037,20497,19937,19381,18265,17141,16577,16017,14889,13781,13217,12645,12069,11473,10893,837,406,127
26,1f,80,vd,100,104,237,21645,21037,20497,19937,19381,18265,17141,16577,16017,14889,13781,13217,12645,12069,11473,837,406,127
26,1f,80,vd,100,104,239,23325,22733,21645,21037,20497,19937,19381,18265,17141,16577,16017,14889,13781,13217,12645,904,537,2
26,1f,80,vd,99,104,240,23885,23325,22733,21645,21037,20497,19937,19381,18265,17141,16577,16017,14889,13781,13217,904,537,2
26,1f,80,vd,100,104,241,24985,23885,23325,22733,21645,21037,20497,19937,19381,18265,17141,16577,16017,14889,13781,957,406,4
26,1f,80,vd,100,104,243,26149,25581,24985,23885,23325,22733,21645,21037,20497,19937,19381,18265,17141,16577,16017,957,406,4
26,1f,80,vd,100,104,244,26689,26149,25581,24985,23885,23325,22733,21645,21037,20497,19937,19381,18265,17141,16577,1024,537,6
26,1f,80,vd,100,104,245,27829,26689,26149,25581,24985,23885,23325,22733,21645,21037,20497,19937,19381,18265,17141,1024,537,6
26,1f,80,vd,100,104,246,28969,27829,26689,26149,25581,24985,23885,23325,22733,21645,21037,20497,19937,19381,18265,1077,406,8
26,1f,80,vd,100,104,248,30149,29577,28969,27829,26689,26149,25581,24985,23885,23325,22733,21645,21037,20497,19937,1077,406,8
26,1f,80,vd,100,104,250,31301,30725,30149,29577,28969,27829,26689,26149,25581,24985,23885,23325,22733,21645,21037,1144,537,11
26,1f,80,vd,100,104,251,31849,31301,30725,30149,29577,28969,27829,26689,26149,25581,24985,23885,23325,22733,21645,1144,537,11
26,1f,80,vd,100,105,252,32993,31849,31301,30725,30149,29577,28969,27829,26689,26149,25581,24985,23885,23325,22733,1211,537,13
26,1f,80,vd,100,105,254,34173,33601,32993,31849,31301,30725,30149,29577,28969,27829,26689,26149,25581,24985,23885,1211,537,13
26,1f,80,vd,100,105,255,35297,34173,33601,32993,31849,31301,30725,30149,29577,28969,27829,26689,26149,25581,24985,1264,406,15
26,1f,80,vd,100,105,1,36449,35877,35297,34173,33601,32993,31849,31301,30725,30149,29577,28969,27829,26689,26149,1264,406,15
26,1f,80,vd,100,105,2,37041,36449,35877,35297,34173,33601,32993,31849,31301,30725,30149,29577,28969,27829,26689,1331,537,18
26,1f,80,vd,100,105,3,38157,37041,36449,35877,35297,34173,33601,32993,31849,31301,30725,30149,29577,28969,27829,1331,537,18
26,1f,80,vd,100,104,4,39301,38157,37041,36449,35877,35297,34173,33601,32993,31849,31301,30725,30149,29577,28969,1384,406,20
26,1f,80,vd,100,104,5,40437,39301,38157,37041,36449,35877,35297,34173,33601,32993,31849,31301,30725,30149,29577,1384,406,20
26,1f,80,vd,100,104,6,41037,40437,39301,38157,37041,36449,35877,35297,34173,33601,32993,31849,31301,30725,30149,1451,537,22
26,1f,80,vd,100,103,8,42173,41597,41037,40437,39301,38157,37041,36449,35877,35297,34173,33601,32993,31849,31301,1451,537,22
26,1f,80,vd,100,103,9,43273,42173,41597,41037,40437,39301,38157,37041,36449,35877,35297,34173,33601,32993,31849,1504,406,24
26,1f,80,vd,100,103,10,44397,43273,42173,41597,41037,40437,39301,38157,37041,36449,35877,35297,34173,33601,32993,1504,406,24
26,1f,80,vd,100,103,11,44965,44397,43273,42173,41597,41037,40437,39301,38157,37041,36449,35877,35297,34173,33601,1571,537,27
26,1f,80,vd,100,103,13,46073,45521,44965,44397,43273,42173,41597,41037,40437,39301,38157,37041,36449,35877,35297,1571,537,27
26,1f,80,vd,100,103,14,47193,46073,45521,44965,44397,43273,42173,41597,41037,40437,39301,38157,37041,36449,35877,1624,406,29
26,1f,80,vd,100,103,16,48341,47781,47193,46073,45521,44965,44397,43273,42173,41597,41037,40437,39301,38157,37041,1624,406,29
26,1f,80,vd,100,103,17,48901,48341,47781,47193,46073,45521,44965,44397,43273,42173,41597,41037,40437,39301,38157,1691,537,31
26,1f,80,vd,99,103,18,49993,48901,48341,47781,47193,46073,45521,44965,44397,43273,42173,41597,41037,40437,39301,1691,537,31
26,1f,80,vd,100,103,19,51117,49993,48901,48341,47781,47193,46073,45521,44965,44397,43273,42173,41597,41037,40437,1744,406,33
26,1f,80,vd,100,103,21,52281,51717,51117,49993,48901,48341,47781,47193,46073,45521,44965,44397,43273,42173,41597,1744,406,33
26,1f,80,vd,100,103,23,53417,52845,52281,51717,51117,49993,48901,48341,47781,47193,46073,45521,44965,44397,43273,1811,537,36
26,1f,80,vd,100,103,23,53417,52845,52281,51717,51117,49993,48901,48341,47781,47193,46073,45521,44965,44397,43273,1811,537,36
26,1f,80,vd,100,103,25,55089,54517,53417,52845,52281,51717,51117,49993,48901,48341,47781,47193,46073,45521,44965,1878,537,38
26,1f,80,vd,100,103,27,56253,55681,55089,54517,53417,52845,52281,51717,51117,49993,48901,48341,47781,47193,46073,1878,537,38
26,1f,80,vd,100,103,28,56789,56253,55681,55089,54517,53417,52845,52281,51717,51117,49993,48901,48341,47781,47193,1931,406,40
26,1f,80,vd,100,104,29,57917,56789,56253,55681,55089,54517,53417,52845,52281,51717,51117,49993,48901,48341,47781,1931,406,40
26,1f,80,vd,100,104,30,59029,57917,56789,56253,55681,55089,54517,53417,52845,52281,51717,51117,49993,48901,48341,1998,537,43
26,1f,80,vd,99,104,32,60177,59621,59029,57917,56789,56253,55681,55089,54517,53417,52845,52281,51717,51117,49993,1998,537,43
26,1f,80,vd,100,104,34,61293,60737,60177,59621,59029,57917,56789,56253,55681,55089,54517,53417,52845,52281,51717,2051,406,45
26,1f,80,vd,100,104,35,62377,61293,60737,60177,59621,59029,57917,56789,56253,55681,55089,54517,53417,52845,52281,2051,406,45
26,1f,80,vd,100,104,35,62377,61293,60737,60177,59621,59029,57917,56789,56253,55681,55089,54517,53417,52845,52281,2118,537,47
26,1f,80,vd,100,104,37,64069,63477,62377,61293,60737,60177,59621,59029,57917,56789,56253,55681,55089,54517,53417,2118,537,47
26,1f,80,vd,100,104,39,65153,64621,64069,63477,62377,61293,60737,60177,59621,59029,57917,56789,56253,55681,55089,2171,406,49
26,1f,80,vd,100,104,40,721,65153,64621,64069,63477,62377,61293,60737,60177,59621,59029,57917,56789,56253,55681,2171,406,49
26,1f,80,vd,100,104,41,1829,721,65153,64621,64069,63477,62377,61293,60737,60177,59621,59029,57917,56789,56253,2238,537,52
26,1f,80,vd,100,104,42,2413,1829,721,65153,64621,64069,63477,62377,61293,60737,60177,59621,59029,57917,56789,2238,537,52
26,1f,80,vd,100,104,44,3517,2969,2413,1829,721,65153,64621,64069,63477,62377,61293,60737,60177,59621,59029,2291,406,54
26,1f,80,vd,100,104,45,4593,3517,2969,2413,1829,721,65153,64621,64069,63477,62377,61293,60737,60177,59621,2291,406,54
26,1f,80,vd,100,104,46,5693,4593,3517,2969,2413,1829,721,65153,64621,64069,63477,62377,61293,60737,60177,2358,537,56
26,1f,80,vd,100,104,48,6789,6245,5693,4593,3517,2969,2413,1829,721,65153,64621,64069,63477,62377,61293,2358,537,56
26,1f,80,vd,100,104,50,7913,7365,6789,6245,5693,4593,3517,2969,2413,1829,721,65153,64621,64069,63477,2411,406,58
26,1f,80,vd,100,104,50,7913,7365,6789,6245,5693,4593,3517,2969,2413,1829,721,65153,64621,64069,63477,2411,406,58
26,1f,80,vd,100,104,52,9557,8977,7913,7365,6789,6245,5693,4593,3517,2969,2413,1829,721,65153,64621,2478,537,61
26,1f,80,vd,100,104,54,10657,10109,9557,8977,7913,7365,6789,6245,5693,4593,3517,2969,2413,1829,721,2478,537,61
26,1f,80,vd,100,104,55,11729,10657,10109,9557,8977,7913,7365,6789,6245,5693,4593,3517,2969,2413,1829,2531,406,63
26,1f,80,vd,100,104,56,12833,11729,10657,10109,9557,8977,7913,7365,6789,6245,5693,4593,3517,2969,2413,2531,406,63
26,1f,80,vd,100,104,57,13929,12833,11729,10657,10109,9557,8977,7913,7365,6789,6245,5693,4593,3517,2969,2598,537,65
26,1f,80,vd,100,104,58,14485,13929,12833,11729,10657,10109,9557,8977,7913,7365,6789,6245,5693,4593,3517,2598,537,65
26,1f,80,vd,100,104,60,15609,15061,14485,13929,12833,11729,10657,10109,9557,8977,7913,7365,6789,6245,5693,2651,406,67
26,1f,80,vd,100,104,61,16161,15609,15061,14485,13929,12833,11729,10657,10109,9557,8977,7913,7365,6789,6245,2651,406,67
26,1f,80,vd,100,105,62,17225,16161,15609,15061,14485,13929,12833,11729,10657,10109,9557,8977,7913,7365,6789,2704,406,69
26,1f,80,vd,100,105,63,18321,17225,16161,15609,15061,14485,13929,12833,11729,10657,10109,9557,8977,7913,7365,2704,406,69
26,1f,80,vd,100,104,64,19409,18321,17225,16161,15609,15061,14485,13929,12833,11729,10657,10109,9557,8977,7913,2771,537,72
26,1f,80,vd,100,104,66,20529,19985,19409,18321,17225,16161,15609,15061,14485,13929,12833,11729,10657,10109,9557,2771,537,72
26,1f,80,vd,100,105,68,21625,21081,20529,19985,19409,18321,17225,16161,15609,15061,14485,13929,12833,11729,10657,2838,537,74
26,1f,80,vd,100,105,69,22693,21625,21081,20529,19985,19409,18321,17225,16161,15609,15061,14485,13929,12833,11729,2838,537,74
26,1f,80,vd,100,105,70,23785,22693,21625,21081,20529,19985,19409,18321,17225,16161,15609,15061,14485,13929,12833,2891,406,76
26,1f,80,vd,100,105,72,24905,24333,23785,22693,21625,21081,20529,19985,19409,18321,17225,16161,15609,15061,14485,2891,406,76
26,1f,80,vd,100,105,73,25453,24905,24333,23785,22693,21625,21081,20529,19985,19409,18321,17225,16161,15609,15061,2958,537,79
26,1f,80,vd,100,105,74,26521,25453,24905,24333,23785,22693,21625,21081,20529,19985,19409,18321,17225,16161,15609,2958,537,79
26,1f,80,vd,100,105,75,27621,26521,25453,24905,24333,23785,22693,21625,21081,20529,19985,19409,18321,17225,16161,3011,406,81
26,1f,80,vd,100,105,76,28729,27621,26521,25453,24905,24333,23785,22693,21625,21081,20529,19985,19409,18321,17225,3011,406,81
26,1f,80,vd,100,105,78,29857,29285,28729,27621,26521,25453,24905,24333,23785,22693,21625,21081,20529,19985,19409,3078,537,83
26,1f,80,vd,100,105,79,30389,29857,29285,28729,27621,26521,25453,24905,24333,23785,22693,21625,21081,20529,19985,3078,537,83
26,1f,80,vd,100,105,80,30957,30389,29857,29285,28729,27621,26521,25453,24905,24333,23785,22693,21625,21081,20529,3131,406,85
26,1f,80,vd,100,105,81,32037,30957,30389,29857,29285,28729,27621,26521,25453,24905,24333,23785,22693,21625,21081,3131,406,85
26,1f,80,vd,100,105,83,33713,33133,32037,30957,30389,29857,29285,28729,27621,26521,25453,24905,24333,23785,22693,3198,537,88
26,1f,80,vd,100,105,84,34801,33713,33133,32037,30957,30389,29857,29285,28729,27621,26521,25453,24905,24333,23785,3198,537,88
26,1f,80,vd,100,105,86,35925,35349,34801,33713,33133,32037,30957,30389,29857,29285,28729,27621,26521,25453,24905,3251,406,90
26,1f,80,vd,100,104,86,35925,35349,34801,33713,33133,32037,30957,30389,29857,29285,28729,27621,26521,25453,24905,3251,406,90
26,1f,80,vd,100,104,87,36993,35925,35349,34801,33713,33133,32037,30957,30389,29857,29285,28729,27621,26521,25453,3318,537,92
26,1f,80,vd,100,104,89,38657,38077,36993,35925,35349,34801,33713,33133,32037,30957,30389,29857,29285,28729,27621,3318,537,92
26,1f,80,vd,100,104,91,39745,39205,38657,38077,36993,35925,35349,34801,33713,33133,32037,30957,30389,29857,29285,3371,406,94
26,1f,80,vd,100,104,92,40805,39745,39205,38657,38077,36993,35925,35349,34801,33713,33133,32037,30957,30389,29857,3371,406,94
26,1f,80,vd,100,104,93,41889,40805,39745,39205,38657,38077,36993,35925,35349,34801,33713,33133,32037,30957,30389,3438,537,97
26,1f,80,vd,100,104,94,42425,41889,40805,39745,39205,38657,38077,36993,35925,35349,34801,33713,33133,32037,30957,3438,537,97
26,1f,80,vd,100,104,96,43509,42989,42425,41889,40805,39745,39205,38657,38077,36993,35925,35349,34801,33713,33133,3491,406,99
26,1f,80,vd,100,105,98,44613,44077,43509,42989,42425,41889,40805,39745,39205,38657,38077,36993,35925,35349,34801,3491,406,99
26,1f,80,vd,100,106,99,45669,44613,44077,43509,42989,42425,41889,40805,39745,39205,38657,38077,36993,35925,35349,3558,537,101
26,1f,80,vd,100,106,100,46753,45669,44613,44077,43509,42989,42425,41889,40805,39745,39205,38657,38077,36993,35925,3558,537,101
26,1f,80,vd,100,107,102,47861,47321,46753,45669,44613,44077,43509,42989,42425,41889,40805,39745,39205,38657,38077,3611,406,103
26,1f,80,vd,100,107,103,48401,47861,47321,46753,45669,44613,44077,43509,42989,42425,41889,40805,39745,39205,38657,3611,406,103
26,1f,80,vd,100,108,105,49481,48941,48401,47861,47321,46753,45669,44613,44077,43509,42989,42425,41889,40805,39745,3678,537,106
26,1f,80,vd,100,108,106,50025,49481,48941,48401,47861,47321,46753,45669,44613,44077,43509,42989,42425,41889,40805,3678,537,106
26,1f,80,vd,100,108,108,51665,51097,50025,49481,48941,48401,47861,47321,46753,45669,44613,44077,43509,42989,42425,3731,406,108
26,1f,80,vd,100,108,110,52729,52209,51665,51097,50025,49481,48941,48401,47861,47321,46753,45669,44613,44077,43509,3731,406,108
26,1f,80,vd,99,108,112,53833,53293,52729,52209,51665,51097,50025,49481,48941,48401,47861,47321,46753,45669,44613,3798,537,110
26,1f,80,vd,99,109,113,54373,53833,53293,52729,52209,51665,51097,50025,49481,48941,48401,47861,47321,46753,45669,3798,537,110
26,1f,80,vd,100,109,114,55429,54373,53833,53293,52729,52209,51665,51097,50025,49481,48941,48401,47861,47321,46753,3866,537,113
26,1f,80,vd,99,109,116,56541,56001,55429,54373,53833,53293,52729,52209,51665,51097,50025,49481,48941,48401,47861,3866,537,113
26,1f,80,vd,100,109,118,57629,57081,56541,56001,55429,54373,53833,53293,52729,52209,51665,51097,50025,49481,48941,3918,406,115
26,1f,80,vd,100,109,119,58685,57629,57081,56541,56001,55429,54373,53833,53293,52729,52209,51665,51097,50025,49481,3918,406,115
26,1f,80,vd,100,109,120,59769,58685,57629,57081,56541,56001,55429,54373,53833,53293,52729,52209,51665,51097,50025,3986,537,117
26,1f,80,vd,100,109,122,60881,60337,59769,58685,57629,57081,56541,56001,55429,54373,53833,53293,52729,52209,51665,3986,537,117
26,1f,80,vd,100,109,123,61397,60881,60337,59769,58685,57629,57081,56541,56001,55429,54373,53833,53293,52729,52209,4038,406,119
26,1f,80,vd,100,109,124,61937,61397,60881,60337,59769,58685,57629,57081,56541,56001,55429,54373,53833,53293,52729,4038,406,119
26,1f,80,vd,100,109,125,63021,61937,61397,60881,60337,59769,58685,57629,57081,56541,56001,55429,54373,53833,53293,10,537,122
26,1f,80,vd,99,109,127,64681,64101,63021,61937,61397,60881,60337,59769,58685,57629,57081,56541,56001,55429,54373,10,537,122
26,1f,80,vd,100,109,129,201,65221,64681,64101,63021,61937,61397,60881,60337,59769,58685,57629,57081,56541,56001,62,406,124
26,1f,80,vd,100,109,130,1289,201,65221,64681,64101,63021,61937,61397,60881,60337,59769,58685,57629,57081,56541,62,406,124
26,1f,80,vd,100,109,131,2385,1289,201,65221,64681,64101,63021,61937,61397,60881,60337,59769,58685,57629,57081,130,537,126
26,1f,80,vd,99,108,132,2961,2385,1289,201,65221,64681,64101,63021,61937,61397,60881,60337,59769,58685,57629,130,537,126
26,1f,80,vd,100,108,134,4065,3509,2961,2385,1289,201,65221,64681,64101,63021,61937,61397,60881,60337,59769,182,406,0
26,1f,80,vd,100,108,135,5141,4065,3509,2961,2385,1289,201,65221,64681,64101,63021,61937,61397,60881,60337,182,406,0
26,1f,80,vd,100,108,136,6241,5141,4065,3509,2961,2385,1289,201,65221,64681,64101,63021,61937,61397,60881,250,537,3
26,1f,80,vd,100,108,138,7365,6793,6241,5141,4065,3509,2961,2385,1289,201,65221,64681,64101,63021,61937,250,537,3
26,1f,80,vd,100,108,139,7921,7365,6793,6241,5141,4065,3509,2961,2385,1289,201,65221,64681,64101,63021,317,537,5
26,1f,80,vd,100,108,140,9001,7921,7365,6793,6241,5141,4065,3509,2961,2385,1289,201,65221,64681,64101,317,537,5
26,1f,80,vd,99,107,141,10117,9001,7921,7365,6793,6241,5141,4065,3509,2961,2385,1289,201,65221,64681,370,406,7
26,1f,80,vd,100,107,142,11221,10117,9001,7921,7365,6793,6241,5141,4065,3509,2961,2385,1289,201,65221,370,406,7
26,1f,80,vd,100,107,144,12345,11801,11221,10117,9001,7921,7365,6793,6241,5141,4065,3509,2961,2385,1289,437,537,10
26,1f,80,vd,100,106,145,12897,12345,11801,11221,10117,9001,7921,7365,6793,6241,5141,4065,3509,2961,2385,437,537,10
26,1f,80,vd,100,106,146,13961,12897,12345,11801,11221,10117,9001,7921,7365,6793,6241,5141,4065,3509,2961,490,406,12
26,1f,80,vd,100,106,147,15057,13961,12897,12345,11801,11221,10117,9001,7921,7365,6793,6241,5141,4065,3509,490,406,12
26,1f,80,vd,100,106,149,16149,15605,15057,13961,12897,12345,11801,11221,10117,9001,7921,7365,6793,6241,5141,557,537,14
26,1f,80,vd,100,106,151,17273,16697,16149,15605,15057,13961,12897,12345,11801,11221,10117,9001,7921,7365,6793,557,537,14
26,1f,80,vd,100,106,152,18333,17273,16697,16149,15605,15057,13961,12897,12345,11801,11221,10117,9001,7921,7365,610,406,16
26,1f,80,vd,99,105,152,18333,17273,16697,16149,15605,15057,13961,12897,12345,11801,11221,10117,9001,7921,7365,610,406,16
26,1f,80,vd,100,105,154,20009,19449,18333,17273,16697,16149,15605,15057,13961,12897,12345,11801,11221,10117,9001,677,537,19
26,1f,80,vd,100,105,156,21145,20589,20009,19449,18333,17273,16697,16149,15605,15057,13961,12897,12345,11801,11221,677,537,19
26,1f,80,vd,100,105,157,22225,21145,20589,20009,19449,18333,17273,16697,16149,15605,15057,13961,12897,12345,11801,744,537,21
26,1f,80,vd,100,105,158,23333,22225,21145,20589,20009,19449,18333,17273,16697,16149,15605,15057,13961,12897,12345,744,537,21
26,1f,80,vd,100,105,159,23905,23333,22225,21145,20589,20009,19449,18333,17273,16697,16149,15605,15057,13961,12897,797,406,23
26,1f,80,vd,100,105,161,24997,24401,23905,23333,22225,21145,20589,20009,19449,18333,17273,16697,16149,15605,15057,797,406,23
26,1f,80,vd,100,104,162,26053,24997,24401,23905,23333,22225,21145,20589,20009,19449,18333,17273,16697,16149,15605,864,537,26
26,1f,80,vd,99,104,163,27121,26053,24997,24401,23905,23333,22225,21145,20589,20009,19449,18333,17273,16697,16149,864,537,26
26,1f,80,vd,100,104,164,28197,27121,26053,24997,24401,23905,23333,22225,21145,20589,20009,19449,18333,17273,16697,917,406,28
26,1f,80,vd,100,103,165,29261,28197,27121,26053,24997,24401,23905,23333,22225,21145,20589,20009,19449,18333,17273,917,406,28
26,1f,80,vd,100,103,167,30309,29809,29261,28197,27121,26053,24997,24401,23905,23333,22225,21145,20589,20009,19449,970,406,30
26,1f,80,vd,100,103,168,30873,30309,29809,29261,28197,27121,26053,24997,24401,23905,23333,22225,21145,20589,20009,970,406,30
26,1f,80,vd,100,103,169,31901,30873,30309,29809,29261,28197,27121,26053,24997,24401,23905,23333,22225,21145,20589,1022,406,32
26,1f,80,vd,100,103,170,32953,31901,30873,30309,29809,29261,28197,27121,26053,24997,24401,23905,23333,22225,21145,1022,406,32
26,1f,80,vd,100,102,172,34033,33505,32953,31901,30873,30309,29809,29261,28197,27121,26053,24997,24401,23905,23333,1075,406,34
26,1f,80,vd,100,103,173,34537,34033,33505,32953,31901,30873,30309,29809,29261,28197,27121,26053,24997,24401,23905,1075,406,34
26,1f,80,vd,100,103,174,35593,34537,34033,33505,32953,31901,30873,30309,29809,29261,28197,27121,26053,24997,24401,1122,356,36
26,1f,80,vd,100,102,175,36493,35593,34537,34033,33505,32953,31901,30873,30309,29809,29261,28197,27121,26053,24997,1122,356,36
26,1f,80,vd,100,102,177,38265,37705,36493,35593,34537,34033,33505,32953,31901,30873,30309,29809,29261,28197,27121,1181,456,38
26,1f,80,vd,100,102,178,39345,38265,37705,36493,35593,34537,34033,33505,32953,31901,30873,30309,29809,29261,28197,1181,456,38
26,1f,80,vd,100,102,179,39881,39345,38265,37705,36493,35593,34537,34033,33505,32953,31901,30873,30309,29809,29261,1227,356,40
26,1f,80,vd,100,102,180,40937,39881,39345,38265,37705,36493,35593,34537,34033,33505,32953,31901,30873,30309,29809,1227,356,40
26,1f,80,vd,100,102,181,42025,40937,39881,39345,38265,37705,36493,35593,34537,34033,33505,32953,31901,30873,30309,1286,456,43
26,1f,80,vd,100,101,182,42569,42025,40937,39881,39345,38265,37705,36493,35593,34537,34033,33505,32953,31901,30873,1286,456,43
26,1f,80,vd,100,101,184,44221,43649,42569,42025,40937,39881,39345,38265,37705,36493,35593,34537,34033,33505,32953,1346,456,45
26,1f,80,vd,100,101,185,45269,44221,43649,42569,42025,40937,39881,39345,38265,37705,36493,35593,34537,34033,33505,1346,456,45
26,1f,80,vd,100,101,186,46353,45269,44221,43649,42569,42025,40937,39881,39345,38265,37705,36493,35593,34537,34033,1398,406,47
26,1f,80,vd,100,101,187,46917,46353,45269,44221,43649,42569,42025,40937,39881,39345,38265,37705,36493,35593,34537,1398,406,47
26,1f,80,vd,99,100,188,47969,46917,46353,45269,44221,43649,42569,42025,40937,39881,39345,38265,37705,36493,35593,1466,537,50
26,1f,80,vd,100,100,189,49045,47969,46917,46353,45269,44221,43649,42569,42025,40937,39881,39345,38265,37705,36493,1466,537,50
26,1f,80,vd,99,100,190,50105,49045,47969,46917,46353,45269,44221,43649,42569,42025,40937,39881,39345,38265,37705,1518,406,52
26,1f,80,vd,100,99,191,50665,50105,49045,47969,46917,46353,45269,44221,43649,42569,42025,40937,39881,39345,38265,1518,406,52
26,1f,80,vd,100,99,193,52273,51713,50665,50105,49045,47969,46917,46353,45269,44221,43649,42569,42025,40937,39881,1586,537,54
26,1f,80,vd,99,99,194,53317,52273,51713,50665,50105,49045,47969,46917,46353,45269,44221,43649,42569,42025,40937,1586,537,54
26,1f,80,vd,100,98,195,54385,53317,52273,51713,50665,50105,49045,47969,46917,46353,45269,44221,43649,42569,42025,1638,406,56
26,1f,80,vd,100,98,196,54953,54385,53317,52273,51713,50665,50105,49045,47969,46917,46353,45269,44221,43649,42569,1638,406,56
26,1f,80,vd,100,98,197,55997,54953,54385,53317,52273,51713,50665,50105,49045,47969,46917,46353,45269,44221,43649,1706,537,59
26,1f,80,vd,100,97,198,57061,55997,54953,54385,53317,52273,51713,50665,50105,49045,47969,46917,46353,45269,44221,1706,537,59
26,1f,80,vd,99,97,199,57625,57061,55997,54953,54385,53317,52273,51713,50665,50105,49045,47969,46917,46353,45269,1758,406,61
26,1f,80,vd,100,96,200,58673,57625,57061,55997,54953,54385,53317,52273,51713,50665,50105,49045,47969,46917,46353,1758,406,61
26,1f,80,vd,100,96,202,60297,59737,58673,57625,57061,55997,54953,54385,53317,52273,51713,50665,50105,49045,47969,1826,537,63
26,1f,80,vd,100,96,203,61341,60297,59737,58673,57625,57061,55997,54953,54385,53317,52273,51713,50665,50105,49045,1826,537,63
26,1f,80,vd,100,95,203,61341,60297,59737,58673,57625,57061,55997,54953,54385,53317,52273,51713,50665,50105,49045,1893,537,66
26,1f,80,vd,100,95,205,62937,62401,61341,60297,59737,58673,57625,57061,55997,54953,54385,53317,52273,51713,50665,1893,537,66
26,1f,80,vd,99,94,206,64005,62937,62401,61341,60297,59737,58673,57625,57061,55997,54953,54385,53317,52273,51713,1946,406,68
26,1f,80,vd,100,94,207,64569,64005,62937,62401,61341,60297,59737,58673,57625,57061,55997,54953,54385,53317,52273,1946,406,68
26,1f,80,vd,100,94,208,65,64569,64005,62937,62401,61341,60297,59737,58673,57625,57061,55997,54953,54385,53317,2013,537,70
26,1f,80,vd,99,93,210,1685,1129,65,64569,64005,62937,62401,61341,60297,59737,58673,57625,57061,55997,54953,2013,537,70
26,1f,80,vd,100,93,211,2729,1685,1129,65,64569,64005,62937,62401,61341,60297,59737,58673,57625,57061,55997,2066,406,72
26,1f,80,vd,99,93,212,3797,2729,1685,1129,65,64569,64005,62937,62401,61341,60297,59737,58673,57625,57061,2066,406,72
26,1f,80,vd,100,92,213,4353,3797,2729,1685,1129,65,64569,64005,62937,62401,61341,60297,59737,58673,57625,2133,537,75
26,1f,80,vd,99,92,214,5389,4353,3797,2729,1685,1129,65,64569,64005,62937,62401,61341,60297,59737,58673,2133,537,75
26,1f,80,vd,99,91,215,6453,5389,4353,3797,2729,1685,1129,65,64569,64005,62937,62401,61341,60297,59737,2186,406,77
26,1f,80,vd,100,91,216,6985,6453,5389,4353,3797,2729,1685,1129,65,64569,64005,62937,62401,61341,60297,2186,406,77
26,1f,80,vd,100,90,217,8041,6985,6453,5389,4353,3797,2729,1685,1129,65,64569,64005,62937,62401,61341,2253,537,79
26,1f,80,vd,100,90,219,9629,9125,8041,6985,6453,5389,4353,3797,2729,1685,1129,65,64569,64005,62937,2253,537,79
26,1f,80,vd,100,90,221,10713,10133,9629,9125,8041,6985,6453,5389,4353,3797,2729,1685,1129,65,64569,2306,406,81
26,1f,80,vd,99,90,222,11741,10713,10133,9629,9125,8041,6985,6453,5389,4353,3797,2729,1685,1129,65,2306,406,81
26,1f,80,vd,100,89,223,12789,11741,10713,10133,9629,9125,8041,6985,6453,5389,4353,3797,2729,1685,1129,2373,537,84
26,1f,80,vd,100,89,224,13329,12789,11741,10713,10133,9629,9125,8041,6985,6453,5389,4353,3797,2729,1685,2373,537,84
26,1f,80,vd,100,89,225,14381,13329,12789,11741,10713,10133,9629,9125,8041,6985,6453,5389,4353,3797,2729,2426,406,86
26,1f,80,vd,99,89,226,15441,14381,13329,12789,11741,10713,10133,9629,9125,8041,6985,6453,5389,4353,3797,2426,406,86
26,1f,80,vd,98,88,228,16485,16005,15441,14381,13329,12789,11741,10713,10133,9629,9125,8041,6985,6453,5389,2493,537,88
26,1f,80,vd,100,88,229,17041,16485,16005,15441,14381,13329,12789,11741,10713,10133,9629,9125,8041,6985,6453,2493,537,88
26,1f,80,vd,98,88,230,18101,17041,16485,16005,15441,14381,13329,12789,11741,10713,10133,9629,9125,8041,6985,2560,537,91
26,1f,80,vd,97,88,232,19709,19157,18101,17041,16485,16005,15441,14381,13329,12789,11741,10713,10133,9629,9125,2560,537,91
26,1f,80,vd,100,88,234,20741,20213,19709,19157,18101,17041,16485,16005,15441,14381,13329,12789,11741,10713,10133,2613,406,93
26,1f,80,vd,97,88,236,21793,21237,20741,20213,19709,19157,18101,17041,16485,16005,15441,14381,13329,12789,11741,2613,406,93
26,1f,80,vd,100,89,238,22853,22237,21793,21237,20741,20213,19709,19157,18101,17041,16485,16005,15441,14381,13329,2680,537,95
26,1f,80,vd,100,90,239,23373,22853,22237,21793,21237,20741,20213,19709,19157,18101,17041,16485,16005,15441,14381,2680,537,95
26,1f,80,vd,100,92,241,24425,23921,23373,22853,22237,21793,21237,20741,20213,19709,19157,18101,17041,16485,16005,2746,512,98
26,1f,80,vd,100,94,243,25509,24945,24425,23921,23373,22853,22237,21793,21237,20741,20213,19709,19157,18101,17041,2746,512,98
26,1f,80,vd,100,95,244,26537,25509,24945,24425,23921,23373,22853,22237,21793,21237,20741,20213,19709,19157,18101,2813,537,100
26,1f,80,vd,100,96,245,27597,26537,25509,24945,24425,23921,23373,22853,22237,21793,21237,20741,20213,19709,19157,2813,537,100
26,1f,80,vd,100,97,247,28689,28157,27597,26537,25509,24945,24425,23921,23373,22853,22237,21793,21237,20741,20213,2866,406,102
26,1f,80,vd,100,98,249,29745,29217,28689,28157,27597,26537,25509,24945,24425,23921,23373,22853,22237,21793,21237,2866,406,102
26,1f,80,vd,100,100,250,30273,29745,29217,28689,28157,27597,26537,25509,24945,24425,23921,23373,22853,22237,21793,2933,537,105
26,1f,80,vd,100,102,251,31293,30273,29745,29217,28689,28157,27597,26537,25509,24945,24425,23921,23373,22853,22237,2933,537,105
26,1f,80,vd,100,103,252,32337,31293,30273,29745,29217,28689,28157,27597,26537,25509,24945,24425,23921,23373,22853,2986,406,107
26,1f,80,vd,100,104,254,33389,32869,32337,31293,30273,29745,29217,28689,28157,27597,26537,25509,24945,24425,23921,2986,406,107
26,1f,80,vd,100,105,0,34465,33937,33389,32869,32337,31293,30273,29745,29217,28689,28157,27597,26537,25509,24945,3053,537,109
26,1f,80,vd,100,106,1,35481,34465,33937,33389,32869,32337,31293,30273,29745,29217,28689,28157,27597,26537,25509,3053,537,109
26,1f,80,vd,100,107,2,36525,35481,34465,33937,33389,32869,32337,31293,30273,29745,29217,28689,28157,27597,26537,3120,537,112
26,1f,80,vd,100,107,3,37569,36525,35481,34465,33937,33389,32869,32337,31293,30273,29745,29217,28689,28157,27597,3120,537,112
26,1f,80,vd,100,108,5,38641,38093,37569,36525,35481,34465,33937,33389,32869,32337,31293,30273,29745,29217,28689,3173,406,114
26,1f,80,vd,100,108,7,39701,39169,38641,38093,37569,36525,35481,34465,33937,33389,32869,32337,31293,30273,29745,3173,406,114
26,1f,80,vd,99,109,9,40757,40229,39701,39169,38641,38093,37569,36525,35481,34465,33937,33389,32869,32337,31293,3240,537,116
26,1f,80,vd,100,109,10,41789,40757,40229,39701,39169,38641,38093,37569,36525,35481,34465,33937,33389,32869,32337,3240,537,116
26,1f,80,vd,100,110,11,42849,41789,40757,40229,39701,39169,38641,38093,37569,36525,35481,34465,33937,33389,32869,3293,406,118
26,1f,80,vd,100,110,12,43377,42849,41789,40757,40229,39701,39169,38641,38093,37569,36525,35481,34465,33937,33389,3293,406,118
26,1f,80,vd,100,110,14,44465,43929,43377,42849,41789,40757,40229,39701,39169,38641,38093,37569,36525,35481,34465,3360,537,121
26,1f,80,vd,100,110,16,45529,44997,44465,43929,43377,42849,41789,40757,40229,39701,39169,38641,38093,37569,36525,3360,537,121
26,1f,80,vd,100,111,17,46565,45529,44997,44465,43929,43377,42849,41789,40757,40229,39701,39169,38641,38093,37569,3427,537,123
26,1f,80,vd,100,111,18,47617,46565,45529,44997,44465,43929,43377,42849,41789,40757,40229,39701,39169,38641,38093,3427,537,123
26,1f,80,vd,100,111,20,48697,48145,47617,46565,45529,44997,44465,43929,43377,42849,41789,40757,40229,39701,39169,3480,406,125
26,1f,80,vd,100,111,22,49749,49225,48697,48145,47617,46565,45529,44997,44465,43929,43377,42849,41789,40757,40229,3480,406,125
26,1f,80,vd,100,111,23,50273,49749,49225,48697,48145,47617,46565,45529,44997,44465,43929,43377,42849,41789,40757,3547,537,0
26,1f,80,vd,100,112,24,51293,50273,49749,49225,48697,48145,47617,46565,45529,44997,44465,43929,43377,42849,41789,3547,537,0
26,1f,80,vd,100,112,25,52341,51293,50273,49749,49225,48697,48145,47617,46565,45529,44997,44465,43929,43377,42849,3614,537,2
26,1f,80,vd,99,112,26,53377,52341,51293,50273,49749,49225,48697,48145,47617,46565,45529,44997,44465,43929,43377,3614,537,2
26,1f,80,vd,100,112,28,54441,53925,53377,52341,51293,50273,49749,49225,48697,48145,47617,46565,45529,44997,44465,3696,637,5
26,1f,80,vd,100,112,29,54961,54441,53925,53377,52341,51293,50273,49749,49225,48697,48145,47617,46565,45529,44997,3696,637,5
26,1f,80,vd,100,112,30,55973,54961,54441,53925,53377,52341,51293,50273,49749,49225,48697,48145,47617,46565,45529,3749,406,7
26,1f,80,vd,100,112,32,57553,57009,55973,54961,54441,53925,53377,52341,51293,50273,49749,49225,48697,48145,47617,3749,406,7
26,1f,80,vd,100,112,34,58605,58029,57553,57009,55973,54961,54441,53925,53377,52341,51293,50273,49749,49225,48697,3816,537,9
26,1f,80,vd,100,111,35,59625,58605,58029,57553,57009,55973,54961,54441,53925,53377,52341,51293,50273,49749,49225,3816,537,9
26,1f,80,vd,100,111,36,60673,59625,58605,58029,57553,57009,55973,54961,54441,53925,53377,52341,51293,50273,49749,3883,537,12
26,1f,80,vd,100,111,38,61721,61201,60673,59625,58605,58029,57553,57009,55973,54961,54441,53925,53377,52341,51293,3883,537,12
26,1f,80,vd,99,111,40,62801,62273,61721,61201,60673,59625,58605,58029,57553,57009,55973,54961,54441,53925,53377,3936,406,14
26,1f,80,vd,100,111,42,63853,63325,62801,62273,61721,61201,60673,59625,58605,58029,57553,57009,55973,54961,54441,3936,406,14
26,1f,80,vd,100,111,42,63853,63325,62801,62273,61721,61201,60673,59625,58605,58029,57553,57009,55973,54961,54441,3989,406,16
26,1f,80,vd,100,112,44,65405,64901,63853,63325,62801,62273,61721,61201,60673,59625,58605,58029,57553,57009,55973,3989,406,16
26,1f,80,vd,100,112,46,945,417,65405,64901,63853,63325,62801,62273,61721,61201,60673,59625,58605,58029,57553,4056,537,18
26,1f,80,vd,100,112,48,2001,1473,945,417,65405,64901,63853,63325,62801,62273,61721,61201,60673,59625,58605,4056,537,18
26,1f,80,vd,100,112,49,3029,2001,1473,945,417,65405,64901,63853,63325,62801,62273,61721,61201,60673,59625,27,537,21
26,1f,80,vd,100,112,51,4085,3581,3029,2001,1473,945,417,65405,64901,63853,63325,62801,62273,61721,61201,27,537,21
26,1f,80,vd,99,112,53,5165,4633,4085,3581,3029,2001,1473,945,417,65405,64901,63853,63325,62801,62273,80,406,23
26,1f,80,vd,100,112,54,5689,5165,4633,4085,3581,3029,2001,1473,945,417,65405,64901,63853,63325,62801,80,406,23
26,1f,80,vd,100,112,55,6721,5689,5165,4633,4085,3581,3029,2001,1473,945,417,65405,64901,63853,63325,147,537,25
26,1f,80,vd,100,112,56,7777,6721,5689,5165,4633,4085,3581,3029,2001,1473,945,417,65405,64901,63853,147,537,25
26,1f,80,vd,99,112,58,8857,8325,7777,6721,5689,5165,4633,4085,3581,3029,2001,1473,945,417,65405,200,406,27
26,1f,80,vd,100,113,59,9377,8857,8325,7777,6721,5689,5165,4633,4085,3581,3029,2001,1473,945,417,200,406,27
26,1f,80,vd,100,113,60,10393,9377,8857,8325,7777,6721,5689,5165,4633,4085,3581,3029,2001,1473,945,267,537,30
26,1f,80,vd,100,112,62,11973,11433,10393,9377,8857,8325,7777,6721,5689,5165,4633,4085,3581,3029,2001,267,537,30
26,1f,80,vd,100,112,64,12973,12489,11973,11433,10393,9377,8857,8325,7777,6721,5689,5165,4633,4085,3581,334,537,32
26,1f,80,vd,100,112,66,14029,13513,12973,12489,11973,11433,10393,9377,8857,8325,7777,6721,5689,5165,4633,334,537,32
26,1f,80,vd,100,113,67,14545,14029,13513,12973,12489,11973,11433,10393,9377,8857,8325,7777,6721,5689,5165,402,537,35
26,1f,80,vd,100,113,69,16105,15553,14545,14029,13513,12973,12489,11973,11433,10393,9377,8857,8325,7777,6721,402,537,35
26,1f,80,vd,100,113,71,17153,16629,16105,15553,14545,14029,13513,12973,12489,11973,11433,10393,9377,8857,8325,469,537,37
26,1f,80,vd,100,113,73,18213,17681,17153,16629,16105,15553,14545,14029,13513,12973,12489,11973,11433,10393,9377,469,537,37
26,1f,80,vd,100,114,75,19269,18717,18213,17681,17153,16629,16105,15553,14545,14029,13513,12973,12489,11973,11433,522,406,39
26,1f,80,vd,99,113,76,20309,19269,18717,18213,17681,17153,16629,16105,15553,14545,14029,13513,12973,12489,11973,522,406,39
26,1f,80,vd,100,112,77,20865,20309,19269,18717,18213,17681,17153,16629,16105,15553,14545,14029,13513,12973,12489,589,537,42
26,1f,80,vd,100,112,79,21929,21401,20865,20309,19269,18717,18213,17681,17153,16629,16105,15553,14545,14029,13513,589,537,42
26,1f,80,vd,100,112,81,22981,22417,21929,21401,20865,20309,19269,18717,18213,17681,17153,16629,16105,15553,14545,656,537,44
26,1f,80,vd,100,111,82,24025,22981,22417,21929,21401,20865,20309,19269,18717,18213,17681,17153,16629,16105,15553,656,537,44
26,1f,80,vd,99,111,84,25077,24561,24025,22981,22417,21929,21401,20865,20309,19269,18717,18213,17681,17153,16629,723,537,47
26,1f,80,vd,100,110,85,25597,25077,24561,24025,22981,22417,21929,21401,20865,20309,19269,18717,18213,17681,17153,723,537,47
26,1f,80,vd,100,110,86,26637,25597,25077,24561,24025,22981,22417,21929,21401,20865,20309,19269,18717,18213,17681,776,406,49
26,1f,80,vd,100,110,88,28197,27649,26637,25597,25077,24561,24025,22981,22417,21929,21401,20865,20309,19269,18717,776,406,49
26,1f,80,vd,99,110,90,29241,28669,28197,27649,26637,25597,25077,24561,24025,22981,22417,21929,21401,20865,20309,843,537,51
26,1f,80,vd,99,110,91,30253,29241,28669,28197,27649,26637,25597,25077,24561,24025,22981,22417,21929,21401,20865,843,537,51
26,1f,80,vd,99,109,93,31289,30769,30253,29241,28669,28197,27649,26637,25597,25077,24561,24025,22981,22417,21929,910,537,54
26,1f,80,vd,98,109,94,31809,31289,30769,30253,29241,28669,28197,27649,26637,25597,25077,24561,24025,22981,22417,910,537,54
26,1f,80,vd,100,110,95,32861,31809,31289,30769,30253,29241,28669,28197,27649,26637,25597,25077,24561,24025,22981,963,406,56
26,1f,80,vd,99,110,96,33873,32861,31809,31289,30769,30253,29241,28669,28197,27649,26637,25597,25077,24561,24025,963,406,56
26,1f,80,vd,99,110,98,34941,34421,33873,32861,31809,31289,30769,30253,29241,28669,28197,27649,26637,25597,25077,1034,562,59
26,1f,80,vd,100,110,100,35893,35461,34941,34421,33873,32861,31809,31289,30769,30253,29241,28669,28197,27649,26637,1034,562,59
26,1f,80,vd,99,110,101,36473,35893,35461,34941,34421,33873,32861,31809,31289,30769,30253,29241,28669,28197,27649,1086,406,61
26,1f,80,vd,100,110,103,38033,37505,36473,35893,35461,34941,34421,33873,32861,31809,31289,30769,30253,29241,28669,1086,406,61
26,1f,80,vd,99,110,105,39061,38549,38033,37505,36473,35893,35461,34941,34421,33873,32861,31809,31289,30769,30253,1139,406,63
26,1f,80,vd,100,110,106,39605,39061,38549,38033,37505,36473,35893,35461,34941,34421,33873,32861,31809,31289,30769,1139,406,63
26,1f,80,vd,100,110,107,40605,39605,39061,38549,38033,37505,36473,35893,35461,34941,34421,33873,32861,31809,31289,1206,537,65
26,1f,80,vd,100,110,108,41641,40605,39605,39061,38549,38033,37505,36473,35893,35461,34941,34421,33873,32861,31809,1206,537,65
26,1f,80,vd,100,110,110,43205,42669,41641,40605,39605,39061,38549,38033,37505,36473,35893,35461,34941,34421,33873,1259,406,67
26,1f,80,vd,100,110,112,44233,43717,43205,42669,41641,40605,39605,39061,38549,38033,37505,36473,35893,35461,34941,1259,406,67
26,1f,80,vd,100,110,114,45253,44721,44233,43717,43205,42669,41641,40605,39605,39061,38549,38033,37505,36473,35893,1307,381,69
26,1f,80,vd,99,111,115,45773,45253,44721,44233,43717,43205,42669,41641,40605,39605,39061,38549,38033,37505,36473,1307,381,69
26,1f,80,vd,100,111,116,46769,45773,45253,44721,44233,43717,43205,42669,41641,40605,39605,39061,38549,38033,37505,1366,456,72
26,1f,80,vd,100,111,117,47793,46769,45773,45253,44721,44233,43717,43205,42669,41641,40605,39605,39061,38549,38033,1366,456,72
26,1f,80,vd,100,112,119,48825,48337,47793,46769,45773,45253,44721,44233,43717,43205,42669,41641,40605,39605,39061,1426,456,74
26,1f,80,vd,100,112,121,49849,49361,48825,48337,47793,46769,45773,45253,44721,44233,43717,43205,42669,41641,40605,1426,456,74
26,1f,80,vd,99,112,123,50909,50393,49849,49361,48825,48337,47793,46769,45773,45253,44721,44233,43717,43205,42669,1507,637,77
26,1f,80,vd,100,112,125,51941,51421,50909,50393,49849,49361,48825,48337,47793,46769,45773,45253,44721,44233,43717,1507,637,77
26,1f,80,vd,99,113,126,52945,51941,51421,50909,50393,49849,49361,48825,48337,47793,46769,45773,45253,44721,44233,1555,381,79
26,1f,80,vd,100,113,127,53981,52945,51941,51421,50909,50393,49849,49361,48825,48337,47793,46769,45773,45253,44721,1555,381,79
26,1f,80,vd,100,113,129,55037,54521,53981,52945,51941,51421,50909,50393,49849,49361,48825,48337,47793,46769,45773,1614,456,81
26,1f,80,vd,100,113,130,55553,55037,54521,53981,52945,51941,51421,50909,50393,49849,49361,48825,48337,47793,46769,1614,456,81
26,1f,80,vd,100,113,131,56565,55553,55037,54521,53981,52945,51941,51421,50909,50393,49849,49361,48825,48337,47793,1674,456,84
26,1f,80,vd,100,113,133,58149,57605,56565,55553,55037,54521,53981,52945,51941,51421,50909,50393,49849,49361,48825,1674,456,84
26,1f,80,vd,100,113,135,59185,58665,58149,57605,56565,55553,55037,54521,53981,52945,51941,51421,50909,50393,49849,1733,456,86
26,1f,80,vd,100,113,137,60197,59709,59185,58665,58149,57605,56565,55553,55037,54521,53981,52945,51941,51421,50909,1733,456,86
26,1f,80,vd,100,113,139,61265,60741,60197,59709,59185,58665,58149,57605,56565,55553,55037,54521,53981,52945,51941,1781,381,88
26,1f,80,vd,100,114,141,62301,61785,61265,60741,60197,59709,59185,58665,58149,57605,56565,55553,55037,54521,53981,1781,381,88
26,1f,80,vd,100,114,142,62817,62301,61785,61265,60741,60197,59709,59185,58665,58149,57605,56565,55553,55037,54521,1840,456,91
26,1f,80,vd,100,114,144,64309,63337,62817,62301,61785,61265,60741,60197,59709,59185,58665,58149,57605,56565,55553,1840,456,91
26,1f,80,vd,100,114,145,64889,64309,63337,62817,62301,61785,61265,60741,60197,59709,59185,58665,58149,57605,56565,1899,456,93
26,1f,80,vd,100,114,147,389,65405,64889,64309,63337,62817,62301,61785,61265,60741,60197,59709,59185,58665,58149,1899,456,93
26,1f,80,vd,100,114,149,1417,905,389,65405,64889,64309,63337,62817,62301,61785,61265,60741,60197,59709,59185,1947,381,95
26,1f,80,vd,100,115,150,1933,1417,905,389,65405,64889,64309,63337,62817,62301,61785,61265,60741,60197,59709,1947,381,95
26,1f,80,vd,100,115,152,3485,2941,1933,1417,905,389,65405,64889,64309,63337,62817,62301,61785,61265,60741,2006,456,98
26,1f,80,vd,100,115,154,4509,3997,3485,2941,1933,1417,905,389,65405,64889,64309,63337,62817,62301,61785,2006,456,98
26,1f,80,vd,100,115,155,5025,4509,3997,3485,2941,1933,1417,905,389,65405,64889,64309,63337,62817,62301,2054,381,100
26,1f,80,vd,100,115,156,6017,5025,4509,3997,3485,2941,1933,1417,905,389,65405,64889,64309,63337,62817,2054,381,100
26,1f,80,vd,100,115,158,7577,7037,6017,5025,4509,3997,3485,2941,1933,1417,905,389,65405,64889,64309,2114,456,102
26,1f,80,vd,100,115,160,8601,8037,7577,7037,6017,5025,4509,3997,3485,2941,1933,1417,905,389,65405,2114,456,102
26,1f,80,vd,100,115,161,9601,8601,8037,7577,7037,6017,5025,4509,3997,3485,2941,1933,1417,905,389,2166,406,104
26,1f,80,vd,100,114,162,10629,9601,8601,8037,7577,7037,6017,5025,4509,3997,3485,2941,1933,1417,905,2166,406,104
26,1f,80,vd,98,114,164,11665,11149,10629,9601,8601,8037,7577,7037,6017,5025,4509,3997,3485,2941,1933,2234,537,107
26,1f,80,vd,100,114,165,12205,11665,11149,10629,9601,8601,8037,7577,7037,6017,5025,4509,3997,3485,2941,2234,537,107
26,1f,80,vd,100,114,166,13221,12205,11665,11149,10629,9601,8601,8037,7577,7037,6017,5025,4509,3997,3485,2301,537,109
26,1f,80,vd,100,113,167,14261,13221,12205,11665,11149,10629,9601,8601,8037,7577,7037,6017,5025,4509,3997,2301,537,109
26,1f,80,vd,100,113,169,15333,14809,14261,13221,12205,11665,11149,10629,9601,8601,8037,7577,7037,6017,5025,2354,406,111
26,1f,80,vd,100,113,171,16281,15849,15333,14809,14261,13221,12205,11665,11149,10629,9601,8601,8037,7577,7037,2354,406,111
26,1f,80,vd,100,113,172,16885,16281,15849,15333,14809,14261,13221,12205,11665,11149,10629,9601,8601,8037,7577,2421,537,114
26,1f,80,vd,98,112,174,18417,17889,16885,16281,15849,15333,14809,14261,13221,12205,11665,11149,10629,9601,8601,2421,537,114
26,1f,80,vd,100,112,176,19473,18957,18417,17889,16885,16281,15849,15333,14809,14261,13221,12205,11665,11149,10629,2488,537,116
26,1f,80,vd,99,112,177,20477,19473,18957,18417,17889,16885,16281,15849,15333,14809,14261,13221,12205,11665,11149,2488,537,116
26,1f,80,vd,100,112,178,21505,20477,19473,18957,18417,17889,16885,16281,15849,15333,14809,14261,13221,12205,11665,2555,537,119
26,1f,80,vd,100,112,180,22557,22045,21505,20477,19473,18957,18417,17889,16885,16281,15849,15333,14809,14261,13221,2555,537,119
26,1f,80,vd,100,112,182,23581,23069,22557,22045,21505,20477,19473,18957,18417,17889,16885,16281,15849,15333,14809,2622,537,121
26,1f,80,vd,99,112,184,24605,24093,23581,23069,22557,22045,21505,20477,19473,18957,18417,17889,16885,16281,15849,2622,537,121
26,1f,80,vd,99,113,186,25625,25041,24605,24093,23581,23069,22557,22045,21505,20477,19473,18957,18417,17889,16885,2675,406,123
26,1f,80,vd,99,114,187,26617,25625,25041,24605,24093,23581,23069,22557,22045,21505,20477,19473,18957,18417,17889,2675,406,123
26,1f,80,vd,99,114,189,27649,27137,26617,25625,25041,24605,24093,23581,23069,22557,22045,21505,20477,19473,18957,2742,537,126
26,1f,80,vd,99,114,190,28189,27649,27137,26617,25625,25041,24605,24093,23581,23069,22557,22045,21505,20477,19473,2742,537,126
26,1f,80,vd,99,115,192,29745,29193,28189,27649,27137,26617,25625,25041,24605,24093,23581,23069,22557,22045,21505,2810,537,0
26,1f,80,vd,100,114,194,30785,30265,29745,29193,28189,27649,27137,26617,25625,25041,24605,24093,23581,23069,22557,2810,537,0
26,1f,80,vd,100,115,194,30785,30265,29745,29193,28189,27649,27137,26617,25625,25041,24605,24093,23581,23069,22557,2862,406,2
26,1f,80,vd,100,115,195,31789,30785,30265,29745,29193,28189,27649,27137,26617,25625,25041,24605,24093,23581,23069,2862,406,2
26,1f,80,vd,100,114,197,33369,32825,31789,30785,30265,29745,29193,28189,27649,27137,26617,25625,25041,24605,24093,2930,537,5
26,1f,80,vd,100,114,199,34413,33893,33369,32825,31789,30785,30265,29745,29193,28189,27649,27137,26617,25625,25041,2930,537,5
26,1f,80,vd,100,114,201,35453,34933,34413,33893,33369,32825,31789,30785,30265,29745,29193,28189,27649,27137,26617,2997,537,7
26,1f,80,vd,100,115,203,36481,35965,35453,34933,34413,33893,33369,32825,31789,30785,30265,29745,29193,28189,27649,2997,537,7
26,1f,80,vd,100,115,205,37513,36997,36481,35965,35453,34933,34413,33893,33369,32825,31789,30785,30265,29745,29193,3064,537,10
26,1f,80,vd,99,115,206,38513,37513,36997,36481,35965,35453,34933,34413,33893,33369,32825,31789,30785,30265,29745,3064,537,10
26,1f,80,vd,100,115,207,39537,38513,37513,36997,36481,35965,35453,34933,34413,33893,33369,32825,31789,30785,30265,3131,537,12
26,1f,80,vd,100,115,209,40597,40085,39537,38513,37513,36997,36481,35965,35453,34933,34413,33893,33369,32825,31789,3131,537,12
26,1f,80,vd,100,115,211,41621,41105,40597,40085,39537,38513,37513,36997,36481,35965,35453,34933,34413,33893,33369,3184,406,14
26,1f,80,vd,100,115,213,42561,42129,41621,41105,40597,40085,39537,38513,37513,36997,36481,35965,35453,34933,34413,3184,406,14
26,1f,80,vd,100,116,214,43153,42561,42129,41621,41105,40597,40085,39537,38513,37513,36997,36481,35965,35453,34933,3251,537,17
26,1f,80,vd,99,116,216,44677,44137,43153,42561,42129,41621,41105,40597,40085,39537,38513,37513,36997,36481,35965,3251,537,17
26,1f,80,vd,100,116,218,45689,45185,44677,44137,43153,42561,42129,41621,41105,40597,40085,39537,38513,37513,36997,3318,537,19
26,1f,80,vd,98,116,220,46705,46201,45689,45185,44677,44137,43153,42561,42129,41621,41105,40597,40085,39537,38513,3318,537,19
26,1f,80,vd,100,117,222,47721,47213,46705,46201,45689,45185,44677,44137,43153,42561,42129,41621,41105,40597,40085,3386,537,22
26,1f,80,vd,99,117,223,48705,47721,47213,46705,46201,45689,45185,44677,44137,43153,42561,42129,41621,41105,40597,3386,537,22
26,1f,80,vd,100,117,224,49721,48705,47721,47213,46705,46201,45689,45185,44677,44137,43153,42561,42129,41621,41105,3438,406,24
26,1f,80,vd,99,117,226,50757,50249,49721,48705,47721,47213,46705,46201,45689,45185,44677,44137,43153,42561,42129,3438,406,24
26,1f,80,vd,100,117,228,51733,51261,50757,50249,49721,48705,47721,47213,46705,46201,45689,45185,44677,44137,43153,3518,637,26
26,1f,80,vd,100,117,229,52265,51733,51261,50757,50249,49721,48705,47721,47213,46705,46201,45689,45185,44677,44137,3518,637,26
26,1f,80,vd,100,116,231,53765,53245,52265,51733,51261,50757,50249,49721,48705,47721,47213,46705,46201,45689,45185,3586,537,29
26,1f,80,vd,99,116,233,54773,54269,53765,53245,52265,51733,51261,50757,50249,49721,48705,47721,47213,46705,46201,3586,537,29
26,1f,80,vd,100,116,234,55745,54773,54269,53765,53245,52265,51733,51261,50757,50249,49721,48705,47721,47213,46705,3669,662,31
26,1f,80,vd,99,116,236,56721,56265,55745,54773,54269,53765,53245,52265,51733,51261,50757,50249,49721,48705,47721,3669,662,31
26,1f,80,vd,100,116,237,57265,56721,56265,55745,54773,54269,53765,53245,52265,51733,51261,50757,50249,49721,48705,3736,537,34
26,1f,80,vd,99,116,239,58761,58237,57265,56721,56265,55745,54773,54269,53765,53245,52265,51733,51261,50757,50249,3736,537,34
26,1f,80,vd,99,116,241,59765,59213,58761,58237,57265,56721,56265,55745,54773,54269,53765,53245,52265,51733,51261,3789,406,36
26,1f,80,vd,99,115,243,60713,60237,59765,59213,58761,58237,57265,56721,56265,55745,54773,54269,53765,53245,52265,3789,406,36
26,1f,80,vd,99,116,244,61233,60713,60237,59765,59213,58761,58237,57265,56721,56265,55745,54773,54269,53765,53245,3856,537,38
26,1f,80,vd,99,116,246,62757,62225,61233,60713,60237,59765,59213,58761,58237,57265,56721,56265,55745,54773,54269,3856,537,38
26,1f,80,vd,100,115,248,63749,63229,62757,62225,61233,60713,60237,59765,59213,58761,58237,57265,56721,56265,55745,3923,537,41
26,1f,80,vd,99,115,250,64757,64253,63749,63229,62757,62225,61233,60713,60237,59765,59213,58761,58237,57265,56721,3923,537,41
26,1f,80,vd,99,116,252,193,65253,64757,64253,63749,63229,62757,62225,61233,60713,60237,59765,59213,58761,58237,3990,537,43
26,1f,80,vd,100,116,253,721,193,65253,64757,64253,63749,63229,62757,62225,61233,60713,60237,59765,59213,58761,3990,537,43
26,1f,80,vd,100,116,255,2225,1697,721,193,65253,64757,64253,63749,63229,62757,62225,61233,60713,60237,59765,4043,406,45
26,1f,80,vd,100,116,1,3233,2725,2225,1697,721,193,65253,64757,64253,63749,63229,62757,62225,61233,60713,4043,406,45
26,1f,80,vd,100,116,2,4209,3233,2725,2225,1697,721,193,65253,64757,64253,63749,63229,62757,62225,61233,14,537,48
26,1f,80,vd,100,116,4,5245,4741,4209,3233,2725,2225,1697,721,193,65253,64757,64253,63749,63229,62757,14,537,48
26,1f,80,vd,99,116,6,6229,5749,5245,4741,4209,3233,2725,2225,1697,721,193,65253,64757,64253,63749,82,537,50
26,1f,80,vd,99,116,7,6721,6229,5749,5245,4741,4209,3233,2725,2225,1697,721,193,65253,64757,64253,82,537,50
26,1f,80,vd,98,116,8,7257,6721,6229,5749,5245,4741,4209,3233,2725,2225,1697,721,193,65253,64757,136,431,52
26,1f,80,vd,100,115,10,9241,8261,7257,6721,6229,5749,5245,4741,4209,3233,2725,2225,1697,721,193,136,431,52
26,1f,80,vd,100,115,11,9765,9241,8261,7257,6721,6229,5749,5245,4741,4209,3233,2725,2225,1697,721,203,537,55
26,1f,80,vd,100,114,14,11249,10777,10273,9765,9241,8261,7257,6721,6229,5749,5245,4741,4209,3233,2725,203,537,55
26,1f,80,vd,99,114,15,11781,11249,10777,10273,9765,9241,8261,7257,6721,6229,5749,5245,4741,4209,3233,256,406,57
26,1f,80,vd,99,114,16,12781,11781,11249,10777,10273,9765,9241,8261,7257,6721,6229,5749,5245,4741,4209,256,406,57
26,1f,80,vd,100,114,17,13753,12781,11781,11249,10777,10273,9765,9241,8261,7257,6721,6229,5749,5245,4741,323,537,59
26,1f,80,vd,100,113,19,14785,14281,13753,12781,11781,11249,10777,10273,9765,9241,8261,7257,6721,6229,5749,323,537,59
26,1f,80,vd,100,114,21,15785,15289,14785,14281,13753,12781,11781,11249,10777,10273,9765,9241,8261,7257,6721,376,406,61
26,1f,80,vd,99,114,22,16289,15785,15289,14785,14281,13753,12781,11781,11249,10777,10273,9765,9241,8261,7257,376,406,61
26,1f,80,vd,100,115,24,17793,17265,16289,15785,15289,14785,14281,13753,12781,11781,11249,10777,10273,9765,9241,443,537,64
26,1f,80,vd,98,115,26,18793,18293,17793,17265,16289,15785,15289,14785,14281,13753,12781,11781,11249,10777,10273,443,537,64
26,1f,80,vd,100,115,27,19769,18793,18293,17793,17265,16289,15785,15289,14785,14281,13753,12781,11781,11249,10777,510,537,66
26,1f,80,vd,98,116,29,20801,20297,19769,18793,18293,17793,17265,16289,15785,15289,14785,14281,13753,12781,11781,510,537,66
26,1f,80,vd,100,116,30,21309,20801,20297,19769,18793,18293,17793,17265,16289,15785,15289,14785,14281,13753,12781,578,537,69
26,1f,80,vd,99,116,32,22829,22293,21309,20801,20297,19769,18793,18293,17793,17265,16289,15785,15289,14785,14281,578,537,69
26,1f,80,vd,100,116,34,23861,23345,22829,22293,21309,20801,20297,19769,18793,18293,17793,17265,16289,15785,15289,578,0,69
26,1f,80,vd,100,116,36,24897,24377,23861,23345,22829,22293,21309,20801,20297,19769,18793,18293,17793,17265,16289,578,0,69
26,1f,80,vd,99,116,38,25929,25413,24897,24377,23861,23345,22829,22293,21309,20801,20297,19769,18793,18293,17793,645,537,71
26,1f,80,vd,99,116,40,26965,26449,25929,25413,24897,24377,23861,23345,22829,22293,21309,20801,20297,19769,18793,645,537,71
26,1f,80,vd,98,116,41,27489,26965,26449,25929,25413,24897,24377,23861,23345,22829,22293,21309,20801,20297,19769,698,406,73
26,1f,80,vd,99,116,43,29037,28517,27489,26965,26449,25929,25413,24897,24377,23861,23345,22829,22293,21309,20801,698,406,73
26,1f,80,vd,100,116,45,30053,29549,29037,28517,27489,26965,26449,25929,25413,24897,24377,23861,23345,22829,22293,768,562,76
26,1f,80,vd,100,116,46,31053,30053,29549,29037,28517,27489,26965,26449,25929,25413,24897,24377,23861,23345,22829,768,562,76
26,1f,80,vd,99,116,47,32069,31053,30053,29549,29037,28517,27489,26965,26449,25929,25413,24897,24377,23861,23345,835,537,78
26,1f,80,vd,99,116,49,33105,32601,32069,31053,30053,29549,29037,28517,27489,26965,26449,25929,25413,24897,24377,835,537,78
26,1f,80,vd,100,116,51,34113,33613,33105,32601,32069,31053,30053,29549,29037,28517,27489,26965,26449,25929,25413,875,306,80
26,1f,80,vd,100,116,52,34617,34113,33613,33105,32601,32069,31053,30053,29549,29037,28517,27489,26965,26449,25929,875,306,80
26,1f,80,vd,100,116,53,35593,34617,34113,33613,33105,32601,32069,31053,30053,29549,29037,28517,27489,26965,26449,960,662,82
26,1f,80,vd,100,116,55,37125,36597,35593,34617,34113,33613,33105,32601,32069,31053,30053,29549,29037,28517,27489,960,662,82
26,1f,80,vd,100,116,57,38137,37633,37125,36597,35593,34617,34113,33613,33105,32601,32069,31053,30053,29549,29037,1027,537,85
26,1f,80,vd,100,117,59,39145,38637,38137,37633,37125,36597,35593,34617,34113,33613,33105,32601,32069,31053,30053,1027,537,85
26,1f,80,vd,100,117,60,40133,39145,38637,38137,37633,37125,36597,35593,34617,34113,33613,33105,32601,32069,31053,1106,612,87
26,1f,80,vd,99,117,61,41149,40133,39145,38637,38137,37633,37125,36597,35593,34617,34113,33613,33105,32601,32069,1106,612,87
26,1f,80,vd,100,117,62,42169,41149,40133,39145,38637,38137,37633,37125,36597,35593,34617,34113,33613,33105,32601,1158,406,89
26,1f,80,vd,100,117,64,43213,42705,42169,41149,40133,39145,38637,38137,37633,37125,36597,35593,34617,34113,33613,1158,406,89
26,1f,80,vd,100,116,66,44229,43725,43213,42705,42169,41149,40133,39145,38637,38137,37633,37125,36597,35593,34617,1226,537,92
26,1f,80,vd,100,116,67,44745,44229,43725,43213,42705,42169,41149,40133,39145,38637,38137,37633,37125,36597,35593,1226,537,92
26,1f,80,vd,100,116,68,45741,44745,44229,43725,43213,42705,42169,41149,40133,39145,38637,38137,37633,37125,36597,1278,406,94
26,1f,80,vd,99,116,69,46765,45741,44745,44229,43725,43213,42705,42169,41149,40133,39145,38637,38137,37633,37125,1278,406,94
26,1f,80,vd,100,116,70,47797,46765,45741,44745,44229,43725,43213,42705,42169,41149,40133,39145,38637,38137,37633,1331,406,96
26,1f,80,vd,99,116,72,48849,48333,47797,46765,45741,44745,44229,43725,43213,42705,42169,41149,40133,39145,38637,1331,406,96
26,1f,80,vd,98,115,73,49361,48849,48333,47797,46765,45741,44745,44229,43725,43213,42705,42169,41149,40133,39145,1398,537,98
26,1f,80,vd,99,115,74,50361,49361,48849,48333,47797,46765,45741,44745,44229,43725,43213,42705,42169,41149,40133,1398,537,98
26,1f,80,vd,99,115,75,51377,50361,49361,48849,48333,47797,46765,45741,44745,44229,43725,43213,42705,42169,41149,1472,587,101
26,1f,80,vd,100,115,77,52921,52389,51377,50361,49361,48849,48333,47797,46765,45741,44745,44229,43725,43213,42705,1472,587,101
26,1f,80,vd,98,115,79,53929,53421,52921,52389,51377,50361,49361,48849,48333,47797,46765,45741,44745,44229,43725,1525,406,103
26,1f,80,vd,99,115,81,54937,54433,53929,53421,52921,52389,51377,50361,49361,48849,48333,47797,46765,45741,44745,1525,406,103
26,1f,80,vd,99,115,82,55913,54937,54433,53929,53421,52921,52389,51377,50361,49361,48849,48333,47797,46765,45741,1578,406,105
26,1f,80,vd,99,116,83,56921,55913,54937,54433,53929,53421,52921,52389,51377,50361,49361,48849,48333,47797,46765,1578,406,105
26,1f,80,vd,98,116,84,57925,56921,55913,54937,54433,53929,53421,52921,52389,51377,50361,49361,48849,48333,47797,1645,537,107
26,1f,80,vd,99,116,86,58957,58453,57925,56921,55913,54937,54433,53929,53421,52921,52389,51377,50361,49361,48849,1645,537,107
26,1f,80,vd,100,116,88,59965,59465,58957,58453,57925,56921,55913,54937,54433,53929,53421,52921,52389,51377,50361,1698,406,109
26,1f,80,vd,98,116,89,60469,59965,59465,58957,58453,57925,56921,55913,54937,54433,53929,53421,52921,52389,51377,1698,406,109
26,1f,80,vd,100,116,90,61449,60469,59965,59465,58957,58453,57925,56921,55913,54937,54433,53929,53421,52921,52389,1738,306,111
26,1f,80,vd,100,116,92,62961,62453,61449,60469,59965,59465,58957,58453,57925,56921,55913,54937,54433,53929,53421,1738,306,111
26,1f,80,vd,100,117,94,63997,63489,62961,62453,61449,60469,59965,59465,58957,58453,57925,56921,55913,54937,54433,1805,537,113
26,1f,80,vd,100,117,96,65001,64497,63997,63489,62961,62453,61449,60469,59965,59465,58957,58453,57925,56921,55913,1805,537,113
26,1f,80,vd,100,117,98,477,65485,65001,64497,63997,63489,62961,62453,61449,60469,59965,59465,58957,58453,57925,1872,537,116
26,1f,80,vd,100,117,100,1477,973,477,65485,65001,64497,63997,63489,62961,62453,61449,60469,59965,59465,58957,1872,537,116
26,1f,80,vd,100,118,102,2485,1981,1477,973,477,65485,65001,64497,63997,63489,62961,62453,61449,60469,59965,1925,406,118
26,1f,80,vd,100,118,104,3497,2997,2485,1981,1477,973,477,65485,65001,64497,63997,63489,62961,62453,61449,1925,406,118
26,1f,80,vd,99,118,105,4485,3497,2997,2485,1981,1477,973,477,65485,65001,64497,63997,63489,62961,62453,1992,537,120
26,1f,80,vd,100,118,106,5489,4485,3497,2997,2485,1981,1477,973,477,65485,65001,64497,63997,63489,62961,1992,537,120
26,1f,80,vd,98,118,108,6517,6021,5489,4485,3497,2997,2485,1981,1477,973,477,65485,65001,64497,63997,2045,406,122
26,1f,80,vd,100,118,109,7021,6517,6021,5489,4485,3497,2997,2485,1981,1477,973,477,65485,65001,64497,2045,406,122
26,1f,80,vd,98,118,110,8013,7021,6517,6021,5489,4485,3497,2997,2485,1981,1477,973,477,65485,65001,2098,406,124
26,1f,80,vd,100,118,112,9501,8985,8013,7021,6517,6021,5489,4485,3497,2997,2485,1981,1477,973,477,2098,406,124
26,1f,80,vd,100,118,114,10493,10001,9501,8985,8013,7021,6517,6021,5489,4485,3497,2997,2485,1981,1477,2165,537,127
26,1f,80,vd,99,118,116,11477,10985,10493,10001,9501,8985,8013,7021,6517,6021,5489,4485,3497,2997,2485,2165,537,127
26,1f,80,vd,99,118,118,12441,11973,11477,10985,10493,10001,9501,8985,8013,7021,6517,6021,5489,4485,3497,2218,406,1
26,1f,80,vd,100,120,119,13445,12441,11973,11477,10985,10493,10001,9501,8985,8013,7021,6517,6021,5489,4485,2218,406,1
26,1f,80,vd,99,120,121,14437,13945,13445,12441,11973,11477,10985,10493,10001,9501,8985,8013,7021,6517,6021,2285,537,3
26,1f,80,vd,99,121,123,15433,14929,14437,13945,13445,12441,11973,11477,10985,10493,10001,9501,8985,8013,7021,2285,537,3
26,1f,80,vd,100,121,125,16425,15929,15433,14929,14437,13945,13445,12441,11973,11477,10985,10493,10001,9501,8985,2352,537,6
26,1f,80,vd,99,121,126,16929,16425,15929,15433,14929,14437,13945,13445,12441,11973,11477,10985,10493,10001,9501,2352,537,6
26,1f,80,vd,97,121,127,17897,16929,16425,15929,15433,14929,14437,13945,13445,12441,11973,11477,10985,10493,10001,2419,537,8
26,1f,80,vd,98,120,129,19433,18901,17897,16929,16425,15929,15433,14929,14437,13945,13445,12441,11973,11477,10985,2419,537,8
26,1f,80,vd,100,120,131,20433,19937,19433,18901,17897,16929,16425,15929,15433,14929,14437,13945,13445,12441,11973,2472,406,10
26,1f,80,vd,100,120,133,21417,20937,20433,19937,19433,18901,17897,16929,16425,15929,15433,14929,14437,13945,13445,2472,406,10
26,1f,80,vd,100,120,135,22449,21945,21417,20937,20433,19937,19433,18901,17897,16929,16425,15929,15433,14929,14437,2539,537,13
26,1f,80,vd,100,120,137,23453,22953,22449,21945,21417,20937,20433,19937,19433,18901,17897,16929,16425,15929,15433,2539,537,13
26,1f,80,vd,98,120,138,24429,23453,22953,22449,21945,21417,20937,20433,19937,19433,18901,17897,16929,16425,15929,2606,537,15
26,1f,80,vd,98,120,139,25461,24429,23453,22953,22449,21945,21417,20937,20433,19937,19433,18901,17897,16929,16425,2606,537,15
26,1f,80,vd,98,119,141,26441,25961,25461,24429,23453,22953,22449,21945,21417,20937,20433,19937,19433,18901,17897,2659,406,17
26,1f,80,vd,99,119,143,27433,26969,26441,25961,25461,24429,23453,22953,22449,21945,21417,20937,20433,19937,19433,2659,406,17
26,1f,80,vd,98,119,144,27977,27433,26969,26441,25961,25461,24429,23453,22953,22449,21945,21417,20937,20433,19937,2742,662,20
26,1f,80,vd,100,119,146,29485,28957,27977,27433,26969,26441,25961,25461,24429,23453,22953,22449,21945,21417,20937,2742,662,20
26,1f,80,vd,100,118,148,30485,29989,29485,28957,27977,27433,26969,26441,25961,25461,24429,23453,22953,22449,21945,2810,537,22
26,1f,80,vd,100,118,150,31493,30989,30485,29989,29485,28957,27977,27433,26969,26441,25961,25461,24429,23453,22953,2810,537,22
26,1f,80,vd,100,118,152,32493,31993,31493,30989,30485,29989,29485,28957,27977,27433,26969,26441,25961,25461,24429,2862,406,24
26,1f,80,vd,98,118,154,33505,33001,32493,31993,31493,30989,30485,29989,29485,28957,27977,27433,26969,26441,25961,2862,406,24
26,1f,80,vd,99,118,155,34009,33505,33001,32493,31993,31493,30989,30485,29989,29485,28957,27977,27433,26969,26441,2930,537,27
26,1f,80,vd,97,118,156,35013,34009,33505,33001,32493,31993,31493,30989,30485,29989,29485,28957,27977,27433,26969,2930,537,27
26,1f,80,vd,99,118,158,36537,36001,35013,34009,33505,33001,32493,31993,31493,30989,30485,29989,29485,28957,27977,2982,406,29
26,1f,80,vd,98,118,160,37541,37013,36537,36001,35013,34009,33505,33001,32493,31993,31493,30989,30485,29989,29485,2982,406,29
26,1f,80,vd,100,118,162,38549,38049,37541,37013,36537,36001,35013,34009,33505,33001,32493,31993,31493,30989,30485,3050,537,31
26,1f,80,vd,100,118,163,39053,38549,38049,37541,37013,36537,36001,35013,34009,33505,33001,32493,31993,31493,30989,3050,537,31
26,1f,80,vd,100,118,164,40057,39053,38549,38049,37541,37013,36537,36001,35013,34009,33505,33001,32493,31993,31493,3102,406,33
26,1f,80,vd,100,118,166,41569,41033,40057,39053,38549,38049,37541,37013,36537,36001,35013,34009,33505,33001,32493,3102,406,33
26,1f,80,vd,98,118,168,42573,42069,41569,41033,40057,39053,38549,38049,37541,37013,36537,36001,35013,34009,33505,3186,662,36
26,1f,80,vd,99,118,169,43541,42573,42069,41569,41033,40057,39053,38549,38049,37541,37013,36537,36001,35013,34009,3186,662,36
26,1f,80,vd,98,118,170,44545,43541,42573,42069,41569,41033,40057,39053,38549,38049,37541,37013,36537,36001,35013,3238,406,38
26,1f,80,vd,99,118,171,45541,44545,43541,42573,42069,41569,41033,40057,39053,38549,38049,37541,37013,36537,36001,3238,406,38
26,1f,80,vd,100,117,172,46533,45541,44545,43541,42573,42069,41569,41033,40057,39053,38549,38049,37541,37013,36537,3315,612,40
26,1f,80,vd,100,117,174,47549,47029,46533,45541,44545,43541,42573,42069,41569,41033,40057,39053,38549,38049,37541,3315,612,40
26,1f,80,vd,99,117,175,48049,47549,47029,46533,45541,44545,43541,42573,42069,41569,41033,40057,39053,38549,38049,3382,537,43
26,1f,80,vd,98,117,176,49045,48049,47549,47029,46533,45541,44545,43541,42573,42069,41569,41033,40057,39053,38549,3382,537,43
26,1f,80,vd,100,117,177,50021,49045,48049,47549,47029,46533,45541,44545,43541,42573,42069,41569,41033,40057,39053,3450,537,45
26,1f,80,vd,98,116,179,51581,51041,50021,49045,48049,47549,47029,46533,45541,44545,43541,42573,42069,41569,41033,3450,537,45
26,1f,80,vd,99,116,181,52605,52093,51581,51041,50021,49045,48049,47549,47029,46533,45541,44545,43541,42573,42069,3515,512,47
26,1f,80,vd,100,116,183,53641,53121,52605,52093,51581,51041,50021,49045,48049,47549,47029,46533,45541,44545,43541,3515,512,47
26,1f,80,vd,98,116,184,54649,53641,53121,52605,52093,51581,51041,50021,49045,48049,47549,47029,46533,45541,44545,3582,537,50
26,1f,80,vd,98,116,185,55669,54649,53641,53121,52605,52093,51581,51041,50021,49045,48049,47549,47029,46533,45541,3582,537,50
26,1f,80,vd,98,115,186,56213,55669,54649,53641,53121,52605,52093,51581,51041,50021,49045,48049,47549,47029,46533,3635,406,52
26,1f,80,vd,100,115,188,57237,56729,56213,55669,54649,53641,53121,52605,52093,51581,51041,50021,49045,48049,47549,3635,406,52
26,1f,80,vd,100,115,190,58257,57749,57237,56729,56213,55669,54649,53641,53121,52605,52093,51581,51041,50021,49045,3702,537,54
26,1f,80,vd,98,116,191,59253,58257,57749,57237,56729,56213,55669,54649,53641,53121,52605,52093,51581,51041,50021,3702,537,54
26,1f,80,vd,99,116,192,60269,59253,58257,57749,57237,56729,56213,55669,54649,53641,53121,52605,52093,51581,51041,3770,537,57
26,1f,80,vd,100,116,193,61281,60269,59253,58257,57749,57237,56729,56213,55669,54649,53641,53121,52605,52093,51581,3770,537,57
26,1f,80,vd,99,116,195,62317,61813,61281,60269,59253,58257,57749,57237,56729,56213,55669,54649,53641,53121,52605,3822,406,59
26,1f,80,vd,100,116,197,63201,62817,62317,61813,61281,60269,59253,58257,57749,57237,56729,56213,55669,54649,53641,3822,406,59
26,1f,80,vd,99,116,198,63817,63201,62817,62317,61813,61281,60269,59253,58257,57749,57237,56729,56213,55669,54649,3890,537,61
26,1f,80,vd,100,116,200,65217,64821,63817,63201,62817,62317,61813,61281,60269,59253,58257,57749,57237,56729,56213,3890,537,61
26,1f,80,vd,100,116,202,805,301,65217,64821,63817,63201,62817,62317,61813,61281,60269,59253,58257,57749,57237,3965,587,64
26,1f,80,vd,99,116,204,1809,1309,805,301,65217,64821,63817,63201,62817,62317,61813,61281,60269,59253,58257,3965,587,64
26,1f,80,vd,100,116,206,2825,2317,1809,1309,805,301,65217,64821,63817,63201,62817,62317,61813,61281,60269,4018,406,66
26,1f,80,vd,100,117,208,3809,3329,2825,2317,1809,1309,805,301,65217,64821,63817,63201,62817,62317,61813,4018,406,66
26,1f,80,vd,100,117,210,4853,4341,3809,3329,2825,2317,1809,1309,805,301,65217,64821,63817,63201,62817,4085,537,68
26,1f,80,vd,100,117,212,5881,5369,4853,4341,3809,3329,2825,2317,1809,1309,805,301,65217,64821,63817,4085,537,68
26,1f,80,vd,99,117,213,6365,5881,5369,4853,4341,3809,3329,2825,2317,1809,1309,805,301,65217,64821,56,537,71
26,1f,80,vd,98,118,215,7937,7397,6365,5881,5369,4853,4341,3809,3329,2825,2317,1809,1309,805,301,56,537,71
26,1f,80,vd,98,119,217,8937,8453,7937,7397,6365,5881,5369,4853,4341,3809,3329,2825,2317,1809,1309,109,406,73
26,1f,80,vd,99,119,219,9989,9473,8937,8453,7937,7397,6365,5881,5369,4853,4341,3809,3329,2825,2317,109,406,73
26,1f,80,vd,100,119,221,11009,10493,9989,9473,8937,8453,7937,7397,6365,5881,5369,4853,4341,3809,3329,162,406,75
26,1f,80,vd,100,118,222,11997,11009,10493,9989,9473,8937,8453,7937,7397,6365,5881,5369,4853,4341,3809,162,406,75
26,1f,80,vd,98,118,223,13009,11997,11009,10493,9989,9473,8937,8453,7937,7397,6365,5881,5369,4853,4341,229,537,77
26,1f,80,vd,98,118,225,14013,13537,13009,11997,11009,10493,9989,9473,8937,8453,7937,7397,6365,5881,5369,229,537,77
26,1f,80,vd,98,117,227,15037,14533,14013,13537,13009,11997,11009,10493,9989,9473,8937,8453,7937,7397,6365,296,537,80
26,1f,80,vd,98,117,229,16041,15453,15037,14533,14013,13537,13009,11997,11009,10493,9989,9473,8937,8453,7937,296,537,80
26,1f,80,vd,96,117,230,17009,16041,15453,15037,14533,14013,13537,13009,11997,11009,10493,9989,9473,8937,8453,349,406,82
26,1f,80,vd,99,117,232,18041,17537,17009,16041,15453,15037,14533,14013,13537,13009,11997,11009,10493,9989,9473,349,406,82
26,1f,80,vd,99,117,233,18545,18041,17537,17009,16041,15453,15037,14533,14013,13537,13009,11997,11009,10493,9989,416,537,84
26,1f,80,vd,99,117,234,19529,18545,18041,17537,17009,16041,15453,15037,14533,14013,13537,13009,11997,11009,10493,416,537,84
26,1f,80,vd,100,117,236,21081,20541,19529,18545,18041,17537,17009,16041,15453,15037,14533,14013,13537,13009,11997,483,537,87
26,1f,80,vd,99,117,238,22097,21589,21081,20541,19529,18545,18041,17537,17009,16041,15453,15037,14533,14013,13537,483,537,87
26,1f,80,vd,100,117,240,23113,22605,22097,21589,21081,20541,19529,18545,18041,17537,17009,16041,15453,15037,14533,536,406,89
26,1f,80,vd,99,117,242,24105,23625,23113,22605,22097,21589,21081,20541,19529,18545,18041,17537,17009,16041,15453,536,406,89
26,1f,80,vd,99,117,244,25157,24645,24105,23625,23113,22605,22097,21589,21081,20541,19529,18545,18041,17537,17009,603,537,91
26,1f,80,vd,100,117,245,25673,25157,24645,24105,23625,23113,22605,22097,21589,21081,20541,19529,18545,18041,17537,603,537,91
26,1f,80,vd,100,117,247,26677,26185,25673,25157,24645,24105,23625,23113,22605,22097,21589,21081,20541,19529,18545,670,537,94
26,1f,80,vd,100,117,249,27733,27221,26677,26185,25673,25157,24645,24105,23625,23113,22605,22097,21589,21081,20541,670,537,94
26,1f,80,vd,100,117,251,28753,28245,27733,27221,26677,26185,25673,25157,24645,24105,23625,23113,22605,22097,21589,738,537,96
26,1f,80,vd,100,117,253,29777,29261,28753,28245,27733,27221,26677,26185,25673,25157,24645,24105,23625,23113,22605,738,537,96
26,1f,80,vd,100,117,254,30281,29777,29261,28753,28245,27733,27221,26677,26185,25673,25157,24645,24105,23625,23113,790,406,98
26,1f,80,vd,100,117,255,31261,30281,29777,29261,28753,28245,27733,27221,26677,26185,25673,25157,24645,24105,23625,790,406,98
26,1f,80,vd,99,117,0,32269,31261,30281,29777,29261,28753,28245,27733,27221,26677,26185,25673,25157,24645,24105,858,537,101
26,1f,80,vd,98,117,1,33273,32269,31261,30281,29777,29261,28753,28245,27733,27221,26677,26185,25673,25157,24645,858,537,101
26,1f,80,vd,100,117,2,34277,33273,32269,31261,30281,29777,29261,28753,28245,27733,27221,26677,26185,25673,25157,939,637,103
26,1f,80,vd,100,115,3,35265,34277,33273,32269,31261,30281,29777,29261,28753,28245,27733,27221,26677,26185,25673,939,637,103
26,1f,80,vd,100,111,4,36257,35265,34277,33273,32269,31261,30281,29777,29261,28753,28245,27733,27221,26677,26185,992,406,105
26,1f,80,vd,99,106,5,37249,36257,35265,34277,33273,32269,31261,30281,29777,29261,28753,28245,27733,27221,26677,992,406,105
26,1f,80,vd,100,101,7,38761,38241,37249,36257,35265,34277,33273,32269,31261,30281,29777,29261,28753,28245,27733,1059,537,108
26,1f,80,vd,99,96,9,39749,39229,38761,38241,37249,36257,35265,34277,33273,32269,31261,30281,29777,29261,28753,1059,537,108
26,1f,80,vd,99,93,11,40745,40253,39749,39229,38761,38241,37249,36257,35265,34277,33273,32269,31261,30281,29777,1126,537,110
26,1f,80,vd,99,94,13,41745,41249,40745,40253,39749,39229,38761,38241,37249,36257,35265,34277,33273,32269,31261,1126,537,110
26,1f,80,vd,99,97,15,42745,42245,41745,41249,40745,40253,39749,39229,38761,38241,37249,36257,35265,34277,33273,1179,406,112
26,1f,80,vd,99,100,16,43749,42745,42245,41745,41249,40745,40253,39749,39229,38761,38241,37249,36257,35265,34277,1179,406,112
26,1f,80,vd,98,103,18,44749,44249,43749,42745,42245,41745,41249,40745,40253,39749,39229,38761,38241,37249,36257,1246,537,115
26,1f,80,vd,100,105,20,45753,45245,44749,44249,43749,42745,42245,41745,41249,40745,40253,39749,39229,38761,38241,1246,537,115
26,1f,80,vd,100,106,22,46757,46257,45753,45245,44749,44249,43749,42745,42245,41745,41249,40745,40253,39749,39229,1314,537,117
26,1f,80,vd,100,108,23,47737,46757,46257,45753,45245,44749,44249,43749,42745,42245,41745,41249,40745,40253,39749,1314,537,117
26,1f,80,vd,99,109,24,48765,47737,46757,46257,45753,45245,44749,44249,43749,42745,42245,41745,41249,40745,40253,1381,537,120
26,1f,80,vd,99,110,26,49769,49273,48765,47737,46757,46257,45753,45245,44749,44249,43749,42745,42245,41745,41249,1381,537,120
26,1f,80,vd,99,111,28,50777,50273,49769,49273,48765,47737,46757,46257,45753,45245,44749,44249,43749,42745,42245,1434,406,122
26,1f,80,vd,99,113,30,51769,51269,50777,50273,49769,49273,48765,47737,46757,46257,45753,45245,44749,44249,43749,1434,406,122
26,1f,80,vd,100,113,32,52773,52269,51769,51269,50777,50273,49769,49273,48765,47737,46757,46257,45753,45245,44749,1520,687,124
26,1f,80,vd,100,114,34,53681,53269,52773,52269,51769,51269,50777,50273,49769,49273,48765,47737,46757,46257,45753,1520,687,124
26,1f,80,vd,98,115,35,54257,53681,53269,52773,52269,51769,51269,50777,50273,49769,49273,48765,47737,46757,46257,1587,537,127
26,1f,80,vd,98,116,37,55733,55217,54257,53681,53269,52773,52269,51769,51269,50777,50273,49769,49273,48765,47737,1587,537,127
26,1f,80,vd,100,116,39,56721,56201,55733,55217,54257,53681,53269,52773,52269,51769,51269,50777,50273,49769,49273,1640,406,1
26,1f,80,vd,98,117,41,57701,57213,56721,56201,55733,55217,54257,53681,53269,52773,52269,51769,51269,50777,50273,1640,406,1
26,1f,80,vd,99,118,43,58681,58189,57701,57213,56721,56201,55733,55217,54257,53681,53269,52773,52269,51769,51269,1707,537,3
26,1f,80,vd,99,118,45,59673,59181,58681,58189,57701,57213,56721,56201,55733,55217,54257,53681,53269,52773,52269,1707,537,3
26,1f,80,vd,99,118,47,60677,60181,59673,59181,58681,58189,57701,57213,56721,56201,55733,55217,54257,53681,53269,1774,537,6
26,1f,80,vd,99,118,50,62177,61681,61185,60677,60181,59673,59181,58681,58189,57701,57213,56721,56201,55733,55217,1774,537,6
26,1f,80,vd,98,119,51,63149,62177,61681,61185,60677,60181,59673,59181,58681,58189,57701,57213,56721,56201,55733,1842,537,8
26,1f,80,vd,98,119,52,64113,63149,62177,61681,61185,60677,60181,59673,59181,58681,58189,57701,57213,56721,56201,1842,537,8
26,1f,80,vd,99,119,54,65157,64637,64113,63149,62177,61681,61185,60677,60181,59673,59181,58681,58189,57701,57213,1909,537,11
26,1f,80,vd,99,119,56,613,117,65157,64637,64113,63149,62177,61681,61185,60677,60181,59673,59181,58681,58189,1909,537,11
26,1f,80,vd,100,119,58,1605,1105,613,117,65157,64637,64113,63149,62177,61681,61185,60677,60181,59673,59181,1962,406,13
26,1f,80,vd,99,119,59,2573,1605,1105,613,117,65157,64637,64113,63149,62177,61681,61185,60677,60181,59673,1962,406,13
26,1f,80,vd,97,119,60,3569,2573,1605,1105,613,117,65157,64637,64113,63149,62177,61681,61185,60677,60181,2029,537,15
26,1f,80,vd,98,119,62,4569,4069,3569,2573,1605,1105,613,117,65157,64637,64113,63149,62177,61681,61185,2029,537,15
26,1f,80,vd,99,119,64,5597,5097,4569,4069,3569,2573,1605,1105,613,117,65157,64637,64113,63149,62177,2096,537,18
26,1f,80,vd,99,119,66,6613,6101,5597,5097,4569,4069,3569,2573,1605,1105,613,117,65157,64637,64113,2096,537,18
26,1f,80,vd,98,119,68,7629,7121,6613,6101,5597,5097,4569,4069,3569,2573,1605,1105,613,117,65157,2163,537,20
26,1f,80,vd,99,119,70,8637,8133,7629,7121,6613,6101,5597,5097,4569,4069,3569,2573,1605,1105,613,2163,537,20
26,1f,80,vd,98,119,71,9149,8637,8133,7629,7121,6613,6101,5597,5097,4569,4069,3569,2573,1605,1105,2230,537,23
26,1f,80,vd,100,119,73,10177,9661,9149,8637,8133,7629,7121,6613,6101,5597,5097,4569,4069,3569,2573,2230,537,23
26,1f,80,vd,99,118,75,11197,10685,10177,9661,9149,8637,8133,7629,7121,6613,6101,5597,5097,4569,4069,2283,406,25
26,1f,80,vd,100,118,77,12217,11705,11197,10685,10177,9661,9149,8637,8133,7629,7121,6613,6101,5597,5097,2283,406,25
26,1f,80,vd,99,118,79,13233,12725,12217,11705,11197,10685,10177,9661,9149,8637,8133,7629,7121,6613,6101,2350,537,27
26,1f,80,vd,99,118,80,14213,13233,12725,12217,11705,11197,10685,10177,9661,9149,8637,8133,7629,7121,6613,2350,537,27
26,1f,80,vd,99,118,82,15249,14749,14213,13233,12725,12217,11705,11197,10685,10177,9661,9149,8637,8133,7629,2418,537,30
26,1f,80,vd,100,118,84,16253,15753,15249,14749,14213,13233,12725,12217,11705,11197,10685,10177,9661,9149,8637,2418,537,30
26,1f,80,vd,97,118,86,17257,16753,16253,15753,15249,14749,14213,13233,12725,12217,11705,11197,10685,10177,9661,2470,406,32
26,1f,80,vd,99,119,88,18253,17753,17257,16753,16253,15753,15249,14749,14213,13233,12725,12217,11705,11197,10685,2470,406,32
26,1f,80,vd,98,119,89,18749,18253,17753,17257,16753,16253,15753,15249,14749,14213,13233,12725,12217,11705,11197,2538,537,34
26,1f,80,vd,97,119,90,19721,18749,18253,17753,17257,16753,16253,15753,15249,14749,14213,13233,12725,12217,11705,2538,537,34
26,1f,80,vd,97,119,92,21137,20717,19721,18749,18253,17753,17257,16753,16253,15753,15249,14749,14213,13233,12725,2605,537,37
26,1f,80,vd,98,119,93,21745,21137,20717,19721,18749,18253,17753,17257,16753,16253,15753,15249,14749,14213,13233,2605,537,37
26,1f,80,vd,95,119,95,23217,22717,21745,21137,20717,19721,18749,18253,17753,17257,16753,16253,15753,15249,14749,2685,637,39
26,1f,80,vd,99,119,97,24233,23733,23217,22717,21745,21137,20717,19721,18749,18253,17753,17257,16753,16253,15753,2685,637,39
26,1f,80,vd,98,119,98,25225,24233,23733,23217,22717,21745,21137,20717,19721,18749,18253,17753,17257,16753,16253,2738,406,41
26,1f,80,vd,97,119,100,26225,25729,25225,24233,23733,23217,22717,21745,21137,20717,19721,18749,18253,17753,17257,2738,406,41
26,1f,80,vd,98,119,102,27225,26721,26225,25729,25225,24233,23733,23217,22717,21745,21137,20717,19721,18749,18253,2805,537,44
26,1f,80,vd,98,119,104,28217,27721,27225,26721,26225,25729,25225,24233,23733,23217,22717,21745,21137,20717,19721,2805,537,44
26,1f,80,vd,99,119,106,29221,28717,28217,27721,27225,26721,26225,25729,25225,24233,23733,23217,22717,21745,21137,2872,537,46
26,1f,80,vd,97,119,108,30221,29717,29221,28717,28217,27721,27225,26721,26225,25729,25225,24233,23733,23217,22717,2872,537,46
26,1f,80,vd,100,119,110,31225,30725,30221,29717,29221,28717,28217,27721,27225,26721,26225,25729,25225,24233,23733,2925,406,48
26,1f,80,vd,99,119,111,32209,31225,30725,30221,29717,29221,28717,28217,27721,27225,26721,26225,25729,25225,24233,2925,406,48
26,1f,80,vd,97,119,112,33217,32209,31225,30725,30221,29717,29221,28717,28217,27721,27225,26721,26225,25729,25225,2992,537,51
26,1f,80,vd,99,119,114,34233,33753,33217,32209,31225,30725,30221,29717,29221,28717,28217,27721,27225,26721,26225,2992,537,51
26,1f,80,vd,98,119,116,35261,34753,34233,33753,33217,32209,31225,30725,30221,29717,29221,28717,28217,27721,27225,3059,537,53
26,1f,80,vd,99,119,118,36265,35765,35261,34753,34233,33753,33217,32209,31225,30725,30221,29717,29221,28717,28217,3059,537,53
26,1f,80,vd,99,119,120,37261,36769,36265,35765,35261,34753,34233,33753,33217,32209,31225,30725,30221,29717,29221,3126,537,56
26,1f,80,vd,99,120,122,38261,37709,37261,36769,36265,35765,35261,34753,34233,33753,33217,32209,31225,30725,30221,3126,537,56
26,1f,80,vd,99,120,124,39221,38669,38261,37709,37261,36769,36265,35765,35261,34753,34233,33753,33217,32209,31225,3179,406,58
26,1f,80,vd,99,121,125,40205,39221,38669,38261,37709,37261,36769,36265,35765,35261,34753,34233,33753,33217,32209,3179,406,58
26,1f,80,vd,98,121,127,41613,41193,40205,39221,38669,38261,37709,37261,36769,36265,35765,35261,34753,34233,33753,3253,587,60
26,1f,80,vd,99,121,128,42201,41613,41193,40205,39221,38669,38261,37709,37261,36769,36265,35765,35261,34753,34233,3253,587,60
26,1f,80,vd,100,121,129,43149,42201,41613,41193,40205,39221,38669,38261,37709,37261,36769,36265,35765,35261,34753,3306,406,62
26,1f,80,vd,100,121,130,44133,43149,42201,41613,41193,40205,39221,38669,38261,37709,37261,36769,36265,35765,35261,3306,406,62
26,1f,80,vd,99,121,131,45109,44133,43149,42201,41613,41193,40205,39221,38669,38261,37709,37261,36769,36265,35765,3358,406,64
26,1f,80,vd,100,121,132,46081,45109,44133,43149,42201,41613,41193,40205,39221,38669,38261,37709,37261,36769,36265,3358,406,64
26,1f,80,vd,99,119,133,47061,46081,45109,44133,43149,42201,41613,41193,40205,39221,38669,38261,37709,37261,36769,3411,406,66
26,1f,80,vd,99,116,134,48041,47061,46081,45109,44133,43149,42201,41613,41193,40205,39221,38669,38261,37709,37261,3411,406,66
26,1f,80,vd,99,112,135,49021,48041,47061,46081,45109,44133,43149,42201,41613,41193,40205,39221,38669,38261,37709,3478,537,69
26,1f,80,vd,97,107,136,50005,49021,48041,47061,46081,45109,44133,43149,42201,41613,41193,40205,39221,38669,38261,3478,537,69
26,1f,80,vd,98,101,137,50989,50005,49021,48041,47061,46081,45109,44133,43149,42201,41613,41193,40205,39221,38669,3531,406,71
26,1f,80,vd,98,96,138,51977,50989,50005,49021,48041,47061,46081,45109,44133,43149,42201,41613,41193,40205,39221,3531,406,71
26,1f,80,vd,99,92,139,52965,51977,50989,50005,49021,48041,47061,46081,45109,44133,43149,42201,41613,41193,40205,3611,637,74
26,1f,80,vd,98,88,140,53953,52965,51977,50989,50005,49021,48041,47061,46081,45109,44133,43149,42201,41613,41193,3611,637,74
26,1f,80,vd,98,85,142,55429,54937,53953,52965,51977,50989,50005,49021,48041,47061,46081,45109,44133,43149,42201,3664,406,76
26,1f,80,vd,99,82,144,56433,55945,55429,54937,53953,52965,51977,50989,50005,49021,48041,47061,46081,45109,44133,3664,406,76
26,1f,80,vd,99,80,146,57421,56929,56433,55945,55429,54937,53953,52965,51977,50989,50005,49021,48041,47061,46081,3717,406,78
26,1f,80,vd,98,81,148,58377,57909,57421,56929,56433,55945,55429,54937,53953,52965,51977,50989,50005,49021,48041,3717,406,78
26,1f,80,vd,100,85,150,59377,58893,58377,57909,57421,56929,56433,55945,55429,54937,53953,52965,51977,50989,50005,3789,562,81
26,1f,80,vd,100,89,152,60369,59873,59377,58893,58377,57909,57421,56929,56433,55945,55429,54937,53953,52965,51977,3789,562,81
26,1f,80,vd,99,93,154,61357,60861,60369,59873,59377,58893,58377,57909,57421,56929,56433,55945,55429,54937,53953,3842,406,83
26,1f,80,vd,99,97,156,62337,61845,61357,60861,60369,59873,59377,58893,58377,57909,57421,56929,56433,55945,55429,3842,406,83
26,1f,80,vd,99,100,158,63325,62833,62337,61845,61357,60861,60369,59873,59377,58893,58377,57909,57421,56929,56433,3894,406,85
26,1f,80,vd,98,102,160,64313,63817,63325,62833,62337,61845,61357,60861,60369,59873,59377,58893,58377,57909,57421,3894,406,85
26,1f,80,vd,99,105,162,65277,64753,64313,63817,63325,62833,62337,61845,61357,60861,60369,59873,59377,58893,58377,3962,537,87
26,1f,80,vd,98,107,163,729,65277,64753,64313,63817,63325,62833,62337,61845,61357,60861,60369,59873,59377,58893,3962,537,87
26,1f,80,vd,98,108,165,1745,1253,729,65277,64753,64313,63817,63325,62833,62337,61845,61357,60861,60369,59873,4014,406,89
26,1f,80,vd,98,110,167,2729,2237,1745,1253,729,65277,64753,64313,63817,63325,62833,62337,61845,61357,60861,4014,406,89
26,1f,80,vd,99,111,169,3717,3221,2729,2237,1745,1253,729,65277,64753,64313,63817,63325,62833,62337,61845,4082,537,92
26,1f,80,vd,98,113,171,4689,4181,3717,3221,2729,2237,1745,1253,729,65277,64753,64313,63817,63325,62833,4082,537,92
26,1f,80,vd,98,114,173,5673,5157,4689,4181,3717,3221,2729,2237,1745,1253,729,65277,64753,64313,63817,38,406,94
26,1f,80,vd,97,115,175,6653,6161,5673,5157,4689,4181,3717,3221,2729,2237,1745,1253,729,65277,64753,38,406,94
26,1f,80,vd,99,116,176,7629,6653,6161,5673,5157,4689,4181,3717,3221,2729,2237,1745,1253,729,65277,106,537,96
26,1f,80,vd,98,117,178,9077,8589,7629,6653,6161,5673,5157,4689,4181,3717,3221,2729,2237,1745,1253,106,537,96
26,1f,80,vd,99,117,180,10053,9589,9077,8589,7629,6653,6161,5673,5157,4689,4181,3717,3221,2729,2237,173,537,99
26,1f,80,vd,99,117,182,11061,10569,10053,9589,9077,8589,7629,6653,6161,5673,5157,4689,4181,3717,3221,173,537,99
26,1f,80,vd,98,118,184,12053,11553,11061,10569,10053,9589,9077,8589,7629,6653,6161,5673,5157,4689,4181,240,537,101
26,1f,80,vd,98,118,186,13041,12549,12053,11553,11061,10569,10053,9589,9077,8589,7629,6653,6161,5673,5157,240,537,101
26,1f,80,vd,99,119,188,14041,13541,13041,12549,12053,11553,11061,10569,10053,9589,9077,8589,7629,6653,6161,307,537,104
26,1f,80,vd,100,119,190,15017,14545,14041,13541,13041,12549,12053,11553,11061,10569,10053,9589,9077,8589,7629,307,537,104
26,1f,80,vd,99,119,192,16013,15513,15017,14545,14041,13541,13041,12549,12053,11553,11061,10569,10053,9589,9077,360,406,106
26,1f,80,vd,97,119,194,17037,16537,16013,15513,15017,14545,14041,13541,13041,12549,12053,11553,11061,10569,10053,360,406,106
26,1f,80,vd,100,119,196,18041,17541,17037,16537,16013,15513,15017,14545,14041,13541,13041,12549,12053,11553,11061,427,537,108
26,1f,80,vd,100,119,197,18541,18041,17541,17037,16537,16013,15513,15017,14545,14041,13541,13041,12549,12053,11553,427,537,108
26,1f,80,vd,100,119,198,19521,18541,18041,17541,17037,16537,16013,15513,15017,14545,14041,13541,13041,12549,12053,494,537,111
26,1f,80,vd,100,119,200,21041,20517,19521,18541,18041,17541,17037,16537,16013,15513,15017,14545,14041,13541,13041,494,537,111
26,1f,80,vd,100,119,202,22029,21537,21041,20517,19521,18541,18041,17541,17037,16537,16013,15513,15017,14545,14041,562,537,113
26,1f,80,vd,97,119,204,23017,22525,22029,21537,21041,20517,19521,18541,18041,17541,17037,16537,16013,15513,15017,562,537,113
26,1f,80,vd,97,119,206,24017,23521,23017,22525,22029,21537,21041,20517,19521,18541,18041,17541,17037,16537,16013,614,406,115
26,1f,80,vd,98,119,208,25021,24521,24017,23521,23017,22525,22029,21537,21041,20517,19521,18541,18041,17541,17037,614,406,115
26,1f,80,vd,99,119,209,25993,25021,24521,24017,23521,23017,22525,22029,21537,21041,20517,19521,18541,18041,17541,682,537,118
26,1f,80,vd,99,119,210,26989,25993,25021,24521,24017,23521,23017,22525,22029,21537,21041,20517,19521,18541,18041,682,537,118
26,1f,80,vd,99,119,211,27981,26989,25993,25021,24521,24017,23521,23017,22525,22029,21537,21041,20517,19521,18541,749,537,120
26,1f,80,vd,98,119,212,29001,27981,26989,25993,25021,24521,24017,23521,23017,22525,22029,21537,21041,20517,19521,749,537,120
26,1f,80,vd,98,119,213,29997,29001,27981,26989,25993,25021,24521,24017,23521,23017,22525,22029,21537,21041,20517,816,537,123
26,1f,80,vd,98,117,214,30957,29997,29001,27981,26989,25993,25021,24521,24017,23521,23017,22525,22029,21537,21041,816,537,123
26,1f,80,vd,99,113,215,31953,30957,29997,29001,27981,26989,25993,25021,24521,24017,23521,23017,22525,22029,21537,883,537,125
26,1f,80,vd,98,108,216,32945,31953,30957,29997,29001,27981,26989,25993,25021,24521,24017,23521,23017,22525,22029,883,537,125
26,1f,80,vd,98,102,218,33965,33469,32945,31953,30957,29997,29001,27981,26989,25993,25021,24521,24017,23521,23017,950,537,0
26,1f,80,vd,97,97,220,34961,34465,33965,33469,32945,31953,30957,29997,29001,27981,26989,25993,25021,24521,24017,950,537,0
26,1f,80,vd,99,94,222,35957,35457,34961,34465,33965,33469,32945,31953,30957,29997,29001,27981,26989,25993,25021,1018,537,2
26,1f,80,vd,96,95,224,36957,36457,35957,35457,34961,34465,33965,33469,32945,31953,30957,29997,29001,27981,26989,1018,537,2
26,1f,80,vd,97,98,226,37969,37461,36957,36457,35957,35457,34961,34465,33965,33469,32945,31953,30957,29997,29001,1070,406,4
26,1f,80,vd,98,101,228,38973,38477,37969,37461,36957,36457,35957,35457,34961,34465,33965,33469,32945,31953,30957,1070,406,4
26,1f,80,vd,98,103,230,39989,39485,38973,38477,37969,37461,36957,36457,35957,35457,34961,34465,33965,33469,32945,1138,537,7
26,1f,80,vd,98,105,232,41005,40493,39989,39485,38973,38477,37969,37461,36957,36457,35957,35457,34961,34465,33965,1138,537,7
26,1f,80,vd,98,106,234,42017,41513,41005,40493,39989,39485,38973,38477,37969,37461,36957,36457,35957,35457,34961,1205,537,9
26,1f,80,vd,99,108,236,43033,42529,42017,41513,41005,40493,39989,39485,38973,38477,37969,37461,36957,36457,35957,1205,537,9
26,1f,80,vd,100,109,237,43545,43033,42529,42017,41513,41005,40493,39989,39485,38973,38477,37969,37461,36957,36457,1258,406,11
26,1f,80,vd,99,110,238,44557,43545,43033,42529,42017,41513,41005,40493,39989,39485,38973,38477,37969,37461,36957,1258,406,11
26,1f,80,vd,98,111,239,45545,44557,43545,43033,42529,42017,41513,41005,40493,39989,39485,38973,38477,37969,37461,1310,406,13
26,1f,80,vd,97,111,241,47097,46561,45545,44557,43545,43033,42529,42017,41513,41005,40493,39989,39485,38973,38477,1310,406,13
26,1f,80,vd,98,111,243,48097,47601,47097,46561,45545,44557,43545,43033,42529,42017,41513,41005,40493,39989,39485,1378,537,16
26,1f,80,vd,99,112,245,49105,48601,48097,47601,47097,46561,45545,44557,43545,43033,42529,42017,41513,41005,40493,1378,537,16
26,1f,80,vd,98,113,246,50085,49105,48601,48097,47601,47097,46561,45545,44557,43545,43033,42529,42017,41513,41005,1445,537,18
26,1f,80,vd,99,113,248,51101,50601,50085,49105,48601,48097,47601,47097,46561,45545,44557,43545,43033,42529,42017,1445,537,18
26,1f,80,vd,99,114,250,52093,51601,51101,50601,50085,49105,48601,48097,47601,47097,46561,45545,44557,43545,43033,1498,406,20
26,1f,80,vd,100,115,252,53085,52593,52093,51601,51101,50601,50085,49105,48601,48097,47601,47097,46561,45545,44557,1498,406,20
26,1f,80,vd,98,116,254,54077,53577,53085,52593,52093,51601,51101,50601,50085,49105,48601,48097,47601,47097,46561,1550,406,22
26,1f,80,vd,99,116,255,55037,54077,53577,53085,52593,52093,51601,51101,50601,50085,49105,48601,48097,47601,47097,1550,406,22
26,1f,80,vd,97,116,0,56033,55037,54077,53577,53085,52593,52093,51601,51101,50601,50085,49105,48601,48097,47601,1618,537,25
26,1f,80,vd,96,117,1,57029,56033,55037,54077,53577,53085,52593,52093,51601,51101,50601,50085,49105,48601,48097,1618,537,25
26,1f,80,vd,97,117,3,58053,57553,57029,56033,55037,54077,53577,53085,52593,52093,51601,51101,50601,50085,49105,1685,537,27
26,1f,80,vd,97,117,5,59053,58553,58053,57553,57029,56033,55037,54077,53577,53085,52593,52093,51601,51101,50601,1685,537,27
26,1f,80,vd,98,117,7,60053,59549,59053,58553,58053,57553,57029,56033,55037,54077,53577,53085,52593,52093,51601,1738,406,29
26,1f,80,vd,98,117,8,60553,60053,59549,59053,58553,58053,57553,57029,56033,55037,54077,53577,53085,52593,52093,1738,406,29
26,1f,80,vd,97,118,9,61529,60553,60053,59549,59053,58553,58053,57553,57029,56033,55037,54077,53577,53085,52593,1805,537,32
26,1f,80,vd,96,118,11,63033,62529,61529,60553,60053,59549,59053,58553,58053,57553,57029,56033,55037,54077,53577,1805,537,32
26,1f,80,vd,99,118,13,64065,63561,63033,62529,61529,60553,60053,59549,59053,58553,58053,57553,57029,56033,55037,1872,537,34
26,1f,80,vd,96,118,15,65045,64541,64065,63561,63033,62529,61529,60553,60053,59549,59053,58553,58053,57553,57029,1872,537,34
26,1f,80,vd,98,118,17,533,9,65045,64541,64065,63561,63033,62529,61529,60553,60053,59549,59053,58553,58053,1939,537,37
26,1f,80,vd,98,118,19,1545,1041,533,9,65045,64541,64065,63561,63033,62529,61529,60553,60053,59549,59053,1939,537,37
26,1f,80,vd,99,118,21,2553,2053,1545,1041,533,9,65045,64541,64065,63561,63033,62529,61529,60553,60053,1992,406,39
26,1f,80,vd,97,118,23,3529,3053,2553,2053,1545,1041,533,9,65045,64541,64065,63561,63033,62529,61529,1992,406,39
26,1f,80,vd,96,119,25,4557,4033,3529,3053,2553,2053,1545,1041,533,9,65045,64541,64065,63561,63033,2059,537,41
26,1f,80,vd,97,119,27,5561,5057,4557,4033,3529,3053,2553,2053,1545,1041,533,9,65045,64541,64065,2059,537,41
26,1f,80,vd,98,119,29,6533,6053,5561,5057,4557,4033,3529,3053,2553,2053,1545,1041,533,9,65045,2126,537,44
26,1f,80,vd,99,119,31,7553,7049,6533,6053,5561,5057,4557,4033,3529,3053,2553,2053,1545,1041,533,2126,537,44
26,1f,80,vd,98,119,33,8545,8049,7553,7049,6533,6053,5561,5057,4557,4033,3529,3053,2553,2053,1545,2194,537,46
26,1f,80,vd,98,119,35,9541,9045,8545,8049,7553,7049,6533,6053,5561,5057,4557,4033,3529,3053,2553,2194,537,46
26,1f,80,vd,97,119,37,10529,10037,9541,9045,8545,8049,7553,7049,6533,6053,5561,5057,4557,4033,3529,2246,406,48
26,1f,80,vd,96,120,38,11501,10529,10037,9541,9045,8545,8049,7553,7049,6533,6053,5561,5057,4557,4033,2246,406,48
26,1f,80,vd,98,120,39,12489,11501,10529,10037,9541,9045,8545,8049,7553,7049,6533,6053,5561,5057,4557,2314,537,51
26,1f,80,vd,97,120,41,13497,13025,12489,11501,10529,10037,9541,9045,8545,8049,7553,7049,6533,6053,5561,2314,537,51
26,1f,80,vd,95,120,43,14529,14021,13497,13025,12489,11501,10529,10037,9541,9045,8545,8049,7553,7049,6533,2381,537,53
26,1f,80,vd,97,120,45,15525,15025,14529,14021,13497,13025,12489,11501,10529,10037,9541,9045,8545,8049,7553,2381,537,53
26,1f,80,vd,98,120,47,16521,16017,15525,15025,14529,14021,13497,13025,12489,11501,10529,10037,9541,9045,8545,2434,406,55
26,1f,80,vd,98,120,49,17529,17025,16521,16017,15525,15025,14529,14021,13497,13025,12489,11501,10529,10037,9541,2434,406,55
26,1f,80,vd,98,120,51,18545,18037,17529,17025,16521,16017,15525,15025,14529,14021,13497,13025,12489,11501,10529,2501,537,58
26,1f,80,vd,98,120,53,19565,19029,18545,18037,17529,17025,16521,16017,15525,15025,14529,14021,13497,13025,12489,2501,537,58
26,1f,80,vd,98,119,54,20077,19565,19029,18545,18037,17529,17025,16521,16017,15525,15025,14529,14021,13497,13025,2568,537,60
26,1f,80,vd,99,119,56,21081,20593,20077,19565,19029,18545,18037,17529,17025,16521,16017,15525,15025,14529,14021,2568,537,60
26,1f,80,vd,97,119,58,22117,21613,21081,20593,20077,19565,19029,18545,18037,17529,17025,16521,16017,15525,15025,2635,537,63
26,1f,80,vd,98,119,60,23113,22621,22117,21613,21081,20593,20077,19565,19029,18545,18037,17529,17025,16521,16017,2635,537,63
26,1f,80,vd,96,119,62,24141,23641,23113,22621,22117,21613,21081,20593,20077,19565,19029,18545,18037,17529,17025,2702,537,65
26,1f,80,vd,98,119,64,25133,24637,24141,23641,23113,22621,22117,21613,21081,20593,20077,19565,19029,18545,18037,2702,537,65
26,1f,80,vd,98,119,66,26129,25629,25133,24637,24141,23641,23113,22621,22117,21613,21081,20593,20077,19565,19029,2770,537,68
26,1f,80,vd,97,119,68,27129,26633,26129,25629,25133,24637,24141,23641,23113,22621,22117,21613,21081,20593,20077,2770,537,68
26,1f,80,vd,97,120,70,28093,27621,27129,26633,26129,25629,25133,24637,24141,23641,23113,22621,22117,21613,21081,2837,537,70
26,1f,80,vd,99,120,72,29101,28585,28093,27621,27129,26633,26129,25629,25133,24637,24141,23641,23113,22621,22117,2837,537,70
26,1f,80,vd,97,120,74,30085,29597,29101,28585,28093,27621,27129,26633,26129,25629,25133,24637,24141,23641,23113,2890,406,72
26,1f,80,vd,97,120,77,31521,31081,30581,30085,29597,29101,28585,28093,27621,27129,26633,26129,25629,25133,24637,2890,406,72
26,1f,80,vd,98,120,79,32569,32049,31521,31081,30581,30085,29597,29101,28585,28093,27621,27129,26633,26129,25629,2957,537,75
26,1f,80,vd,98,120,81,33533,33061,32569,32049,31521,31081,30581,30085,29597,29101,28585,28093,27621,27129,26633,2957,537,75
26,1f,80,vd,99,121,83,34509,34021,33533,33061,32569,32049,31521,31081,30581,30085,29597,29101,28585,28093,27621,3024,537,77
26,1f,80,vd,100,121,85,35505,34993,34509,34021,33533,33061,32569,32049,31521,31081,30581,30085,29597,29101,28585,3024,537,77
26,1f,80,vd,100,121,87,36481,35993,35505,34993,34509,34021,33533,33061,32569,32049,31521,31081,30581,30085,29597,3091,537,80
26,1f,80,vd,96,121,89,37469,36973,36481,35993,35505,34993,34509,34021,33533,33061,32569,32049,31521,31081,30581,3091,537,80
26,1f,80,vd,96,121,91,38429,37961,37469,36973,36481,35993,35505,34993,34509,34021,33533,33061,32569,32049,31521,3158,537,82
26,1f,80,vd,98,121,93,39445,38949,38429,37961,37469,36973,36481,35993,35505,34993,34509,34021,33533,33061,32569,3158,537,82
26,1f,80,vd,98,121,95,40413,39941,39445,38949,38429,37961,37469,36973,36481,35993,35505,34993,34509,34021,33533,3211,406,84
26,1f,80,vd,98,121,97,41433,40937,40413,39941,39445,38949,38429,37961,37469,36973,36481,35993,35505,34993,34509,3211,406,84
26,1f,80,vd,99,121,99,42401,41929,41433,40937,40413,39941,39445,38949,38429,37961,37469,36973,36481,35993,35505,3278,537,87
26,1f,80,vd,100,121,101,43421,42925,42401,41929,41433,40937,40413,39941,39445,38949,38429,37961,37469,36973,36481,3278,537,87
26,1f,80,vd,99,121,103,44421,43925,43421,42925,42401,41929,41433,40937,40413,39941,39445,38949,38429,37961,37469,3346,537,89
26,1f,80,vd,98,121,105,45421,44893,44421,43925,43421,42925,42401,41929,41433,40937,40413,39941,39445,38949,38429,3346,537,89
26,1f,80,vd,99,121,107,46409,45917,45421,44893,44421,43925,43421,42925,42401,41929,41433,40937,40413,39941,39445,3398,406,91
26,1f,80,vd,99,121,109,47409,46909,46409,45917,45421,44893,44421,43925,43421,42925,42401,41929,41433,40937,40413,3398,406,91
26,1f,80,vd,100,121,111,48377,47909,47409,46909,46409,45917,45421,44893,44421,43925,43421,42925,42401,41929,41433,3466,537,94
26,1f,80,vd,99,121,113,49405,48905,48377,47909,47409,46909,46409,45917,45421,44893,44421,43925,43421,42925,42401,3466,537,94
26,1f,80,vd,99,121,115,50409,49909,49405,48905,48377,47909,47409,46909,46409,45917,45421,44893,44421,43925,43421,3541,587,96
26,1f,80,vd,100,121,117,51405,50885,50409,49909,49405,48905,48377,47909,47409,46909,46409,45917,45421,44893,44421,3541,587,96
26,1f,80,vd,98,120,119,52405,51909,51405,50885,50409,49909,49405,48905,48377,47909,47409,46909,46409,45917,45421,3608,537,99
26,1f,80,vd,98,120,121,53413,52909,52405,51909,51405,50885,50409,49909,49405,48905,48377,47909,47409,46909,46409,3608,537,99
26,1f,80,vd,98,120,123,54413,53917,53413,52909,52405,51909,51405,50885,50409,49909,49405,48905,48377,47909,47409,3661,406,101
26,1f,80,vd,100,120,125,55409,54909,54413,53917,53413,52909,52405,51909,51405,50885,50409,49909,49405,48905,48377,3661,406,101
26,1f,80,vd,100,120,127,56405,55909,55409,54909,54413,53917,53413,52909,52405,51909,51405,50885,50409,49909,49405,3757,768,103
26,1f,80,vd,100,120,129,57397,56901,56405,55909,55409,54909,54413,53917,53413,52909,52405,51909,51405,50885,50409,3757,768,103
26,1f,80,vd,98,120,131,58393,57897,57397,56901,56405,55909,55409,54909,54413,53917,53413,52909,52405,51909,51405,3810,406,105
26,1f,80,vd,98,120,133,59389,58889,58393,57897,57397,56901,56405,55909,55409,54909,54413,53917,53413,52909,52405,3810,406,105
26,1f,80,vd,98,120,135,60377,59885,59389,58889,58393,57897,57397,56901,56405,55909,55409,54909,54413,53917,53413,3877,537,108
26,1f,80,vd,98,121,137,61361,60873,60377,59885,59389,58889,58393,57897,57397,56901,56405,55909,55409,54909,54413,3877,537,108
26,1f,80,vd,98,121,139,62353,61857,61361,60873,60377,59885,59389,58889,58393,57897,57397,56901,56405,55909,55409,3950,587,110
26,1f,80,vd,98,121,141,63333,62837,62353,61857,61361,60873,60377,59885,59389,58889,58393,57897,57397,56901,56405,3950,587,110
26,1f,80,vd,99,121,143,64273,63805,63333,62837,62353,61857,61361,60873,60377,59885,59389,58889,58393,57897,57397,4018,537,113
26,1f,80,vd,99,122,144,64813,64273,63805,63333,62837,62353,61857,61361,60873,60377,59885,59389,58889,58393,57897,4018,537,113
26,1f,80,vd,98,122,146,753,229,64813,64273,63805,63333,62837,62353,61857,61361,60873,60377,59885,59389,58889,4085,537,115
26,1f,80,vd,98,122,148,1737,1221,753,229,64813,64273,63805,63333,62837,62353,61857,61361,60873,60377,59885,4085,537,115
26,1f,80,vd,98,122,150,2733,2213,1737,1221,753,229,64813,64273,63805,63333,62837,62353,61857,61361,60873,56,537,118
26,1f,80,vd,98,122,152,3729,3233,2733,2213,1737,1221,753,229,64813,64273,63805,63333,62837,62353,61857,56,537,118
26,1f,80,vd,97,122,154,4729,4233,3729,3233,2733,2213,1737,1221,753,229,64813,64273,63805,63333,62837,123,537,120
26,1f,80,vd,98,121,156,5749,5241,4729,4233,3729,3233,2733,2213,1737,1221,753,229,64813,64273,63805,123,537,120
26,1f,80,vd,99,121,158,6761,6249,5749,5241,4729,4233,3729,3233,2733,2213,1737,1221,753,229,64813,176,406,122
26,1f,80,vd,97,121,160,7765,7261,6761,6249,5749,5241,4729,4233,3729,3233,2733,2213,1737,1221,753,176,406,122
26,1f,80,vd,98,121,162,8769,8273,7765,7261,6761,6249,5749,5241,4729,4233,3729,3233,2733,2213,1737,253,612,125
26,1f,80,vd,99,120,164,9769,9269,8769,8273,7765,7261,6761,6249,5749,5241,4729,4233,3729,3233,2733,253,612,125
26,1f,80,vd,100,120,166,10769,10269,9769,9269,8769,8273,7765,7261,6761,6249,5749,5241,4729,4233,3729,325,562,127
26,1f,80,vd,99,120,168,11757,11265,10769,10269,9769,9269,8769,8273,7765,7261,6761,6249,5749,5241,4729,325,562,127
26,1f,80,vd,97,121,170,12753,12257,11757,11265,10769,10269,9769,9269,8769,8273,7765,7261,6761,6249,5749,392,537,2
26,1f,80,vd,96,121,172,13741,13249,12753,12257,11757,11265,10769,10269,9769,9269,8769,8273,7765,7261,6761,392,537,2
26,1f,80,vd,97,121,174,14737,14241,13741,13249,12753,12257,11757,11265,10769,10269,9769,9269,8769,8273,7765,445,406,4
26,1f,80,vd,98,121,176,15729,15237,14737,14241,13741,13249,12753,12257,11757,11265,10769,10269,9769,9269,8769,445,406,4
26,1f,80,vd,98,121,178,16693,16225,15729,15237,14737,14241,13741,13249,12753,12257,11757,11265,10769,10269,9769,512,537,6
26,1f,80,vd,97,121,180,17717,17217,16693,16225,15729,15237,14737,14241,13741,13249,12753,12257,11757,11265,10769,512,537,6
26,1f,80,vd,96,121,182,18705,18209,17717,17217,16693,16225,15729,15237,14737,14241,13741,13249,12753,12257,11757,579,537,9
26,1f,80,vd,97,121,184,19669,19197,18705,18209,17717,17217,16693,16225,15729,15237,14737,14241,13741,13249,12753,579,537,9
26,1f,80,vd,96,121,186,20609,20193,19669,19197,18705,18209,17717,17217,16693,16225,15729,15237,14737,14241,13741,646,537,11
26,1f,80,vd,97,120,187,21185,20609,20193,19669,19197,18705,18209,17717,17217,16693,16225,15729,15237,14737,14241,646,537,11
26,1f,80,vd,98,119,189,22649,22153,21185,20609,20193,19669,19197,18705,18209,17717,17217,16693,16225,15729,15237,699,406,13
26,1f,80,vd,98,119,191,23657,23137,22649,22153,21185,20609,20193,19669,19197,18705,18209,17717,17217,16693,16225,699,406,13
26,1f,80,vd,98,119,193,24641,24153,23657,23137,22649,22153,21185,20609,20193,19669,19197,18705,18209,17717,17217,766,537,16
26,1f,80,vd,98,119,195,25633,25137,24641,24153,23657,23137,22649,22153,21185,20609,20193,19669,19197,18705,18209,766,537,16
26,1f,80,vd,98,119,197,26621,26129,25633,25137,24641,24153,23657,23137,22649,22153,21185,20609,20193,19669,19197,834,537,18
26,1f,80,vd,97,120,199,27613,27117,26621,26129,25633,25137,24641,24153,23657,23137,22649,22153,21185,20609,20193,834,537,18
26,1f,80,vd,97,120,201,28613,28113,27613,27117,26621,26129,25633,25137,24641,24153,23657,23137,22649,22153,21185,901,537,21
26,1f,80,vd,100,120,203,29593,29121,28613,28113,27613,27117,26621,26129,25633,25137,24641,24153,23657,23137,22649,901,537,21
26,1f,80,vd,99,120,205,30617,30121,29593,29121,28613,28113,27613,27117,26621,26129,25633,25137,24641,24153,23657,968,537,23
26,1f,80,vd,99,120,207,31617,31117,30617,30121,29593,29121,28613,28113,27613,27117,26621,26129,25633,25137,24641,968,537,23
26,1f,80,vd,97,120,209,32633,32121,31617,31117,30617,30121,29593,29121,28613,28113,27613,27117,26621,26129,25633,1021,406,25
26,1f,80,vd,97,120,211,33633,33133,32633,32121,31617,31117,30617,30121,29593,29121,28613,28113,27613,27117,26621,1021,406,25
26,1f,80,vd,99,120,213,34641,34141,33633,33133,32633,32121,31617,31117,30617,30121,29593,29121,28613,28113,27613,1088,537,28
26,1f,80,vd,98,120,215,35637,35133,34641,34141,33633,33133,32633,32121,31617,31117,30617,30121,29593,29121,28613,1088,537,28
26,1f,80,vd,97,120,217,36633,36129,35637,35133,34641,34141,33633,33133,32633,32121,31617,31117,30617,30121,29593,1155,537,30
26,1f,80,vd,96,121,218,37105,36633,36129,35637,35133,34641,34141,33633,33133,32633,32121,31617,31117,30617,30121,1155,537,30
26,1f,80,vd,97,121,220,38521,38097,37105,36633,36129,35637,35133,34641,34141,33633,33133,32633,32121,31617,31117,1208,406,32
26,1f,80,vd,95,122,221,39117,38521,38097,37105,36633,36129,35637,35133,34641,34141,33633,33133,32633,32121,31617,1208,406,32
26,1f,80,vd,97,122,223,40605,40081,39117,38521,38097,37105,36633,36129,35637,35133,34641,34141,33633,33133,32633,1275,537,35
26,1f,80,vd,96,122,225,41597,41101,40605,40081,39117,38521,38097,37105,36633,36129,35637,35133,34641,34141,33633,1275,537,35
26,1f,80,vd,98,122,227,42581,42065,41597,41101,40605,40081,39117,38521,38097,37105,36633,36129,35637,35133,34641,1342,537,37
26,1f,80,vd,99,122,229,43569,43073,42581,42065,41597,41101,40605,40081,39117,38521,38097,37105,36633,36129,35637,1342,537,37
26,1f,80,vd,99,122,231,44553,44057,43569,43073,42581,42065,41597,41101,40605,40081,39117,38521,38097,37105,36633,1410,537,40
26,1f,80,vd,97,122,233,45545,45049,44553,44057,43569,43073,42581,42065,41597,41101,40605,40081,39117,38521,38097,1410,537,40
26,1f,80,vd,98,122,235,46541,46045,45545,45049,44553,44057,43569,43073,42581,42065,41597,41101,40605,40081,39117,1477,537,42
26,1f,80,vd,96,122,237,47521,47045,46541,46045,45545,45049,44553,44057,43569,43073,42581,42065,41597,41101,40605,1477,537,42
26,1f,80,vd,98,121,239,48553,48049,47521,47045,46541,46045,45545,45049,44553,44057,43569,43073,42581,42065,41597,1530,406,44
26,1f,80,vd,98,121,241,49569,49061,48553,48049,47521,47045,46541,46045,45545,45049,44553,44057,43569,43073,42581,1530,406,44
26,1f,80,vd,98,121,243,50561,50053,49569,49061,48553,48049,47521,47045,46541,46045,45545,45049,44553,44057,43569,1597,537,47
26,1f,80,vd,97,120,245,51593,51089,50561,50053,49569,49061,48553,48049,47521,47045,46541,46045,45545,45049,44553,1597,537,47
26,1f,80,vd,99,120,247,52609,52101,51593,51089,50561,50053,49569,49061,48553,48049,47521,47045,46541,46045,45545,1664,537,49
26,1f,80,vd,97,120,249,53601,53125,52609,52101,51593,51089,50561,50053,49569,49061,48553,48049,47521,47045,46541,1664,537,49
26,1f,80,vd,98,120,251,54625,54125,53601,53125,52609,52101,51593,51089,50561,50053,49569,49061,48553,48049,47521,1731,537,52
26,1f,80,vd,98,120,253,55617,55121,54625,54125,53601,53125,52609,52101,51593,51089,50561,50053,49569,49061,48553,1731,537,52
26,1f,80,vd,98,120,254,56113,55617,55121,54625,54125,53601,53125,52609,52101,51593,51089,50561,50053,49569,49061,1784,406,54
26,1f,80,vd,97,120,0,57565,57081,56113,55617,55121,54625,54125,53601,53125,52609,52101,51593,51089,50561,50053,1784,406,54
26,1f,80,vd,98,120,3,59033,58569,58081,57565,57081,56113,55617,55121,54625,54125,53601,53125,52609,52101,51593,1851,537,56
26,1f,80,vd,100,121,4,59517,59033,58569,58081,57565,57081,56113,55617,55121,54625,54125,53601,53125,52609,52101,1851,537,56
26,1f,80,vd,100,121,6,61005,60493,59517,59033,58569,58081,57565,57081,56113,55617,55121,54625,54125,53601,53125,1918,537,59
26,1f,80,vd,98,121,8,61977,61489,61005,60493,59517,59033,58569,58081,57565,57081,56113,55617,55121,54625,54125,1918,537,59
26,1f,80,vd,100,121,10,62929,62469,61977,61489,61005,60493,59517,59033,58569,58081,57565,57081,56113,55617,55121,1986,537,61
26,1f,80,vd,99,122,12,63929,63417,62929,62469,61977,61489,61005,60493,59517,59033,58569,58081,57565,57081,56113,1986,537,61
26,1f,80,vd,98,122,13,64421,63929,63417,62929,62469,61977,61489,61005,60493,59517,59033,58569,58081,57565,57081,2038,406,63
26,1f,80,vd,97,122,14,65373,64421,63929,63417,62929,62469,61977,61489,61005,60493,59517,59033,58569,58081,57565,2038,406,63
26,1f,80,vd,97,121,15,829,65373,64421,63929,63417,62929,62469,61977,61489,61005,60493,59517,59033,58569,58081,2106,537,66
26,1f,80,vd,100,121,17,2333,1817,829,65373,64421,63929,63417,62929,62469,61977,61489,61005,60493,59517,59033,2106,537,66
26,1f,80,vd,100,121,19,3333,2813,2333,1817,829,65373,64421,63929,63417,62929,62469,61977,61489,61005,60493,2173,537,68
26,1f,80,vd,99,121,21,4333,3829,3333,2813,2333,1817,829,65373,64421,63929,63417,62929,62469,61977,61489,2173,537,68
26,1f,80,vd,100,121,23,5321,4825,4333,3829,3333,2813,2333,1817,829,65373,64421,63929,63417,62929,62469,2240,537,71
26,1f,80,vd,99,121,25,6313,5821,5321,4825,4333,3829,3333,2813,2333,1817,829,65373,64421,63929,63417,2240,537,71
26,1f,80,vd,99,121,27,7301,6809,6313,5821,5321,4825,4333,3829,3333,2813,2333,1817,829,65373,64421,2293,406,73
26,1f,80,vd,97,121,29,8285,7797,7301,6809,6313,5821,5321,4825,4333,3829,3333,2813,2333,1817,829,2293,406,73
26,1f,80,vd,97,121,31,9273,8777,8285,7797,7301,6809,6313,5821,5321,4825,4333,3829,3333,2813,2333,2360,537,75
26,1f,80,vd,98,121,33,10261,9769,9273,8777,8285,7797,7301,6809,6313,5821,5321,4825,4333,3829,3333,2360,537,75
26,1f,80,vd,97,121,35,11249,10753,10261,9769,9273,8777,8285,7797,7301,6809,6313,5821,5321,4825,4333,2438,612,78
26,1f,80,vd,97,121,37,12237,11741,11249,10753,10261,9769,9273,8777,8285,7797,7301,6809,6313,5821,5321,2438,612,78
26,1f,80,vd,99,121,39,13217,12725,12237,11741,11249,10753,10261,9769,9273,8777,8285,7797,7301,6809,6313,2506,537,80
26,1f,80,vd,97,122,41,14177,13713,13217,12725,12237,11741,11249,10753,10261,9769,9273,8777,8285,7797,7301,2506,537,80
26,1f,80,vd,98,121,43,15189,14693,14177,13713,13217,12725,12237,11741,11249,10753,10261,9769,9273,8777,8285,2582,612,83
26,1f,80,vd,98,121,45,16177,15685,15189,14693,14177,13713,13217,12725,12237,11741,11249,10753,10261,9769,9273,2582,612,83
26,1f,80,vd,98,121,47,17173,16649,16177,15685,15189,14693,14177,13713,13217,12725,12237,11741,11249,10753,10261,2635,406,85
26,1f,80,vd,98,121,49,18165,17669,17173,16649,16177,15685,15189,14693,14177,13713,13217,12725,12237,11741,11249,2635,406,85
26,1f,80,vd,98,122,51,19133,18661,18165,17669,17173,16649,16177,15685,15189,14693,14177,13713,13217,12725,12237,2702,537,87
26,1f,80,vd,97,122,53,20129,19633,19133,18661,18165,17669,17173,16649,16177,15685,15189,14693,14177,13713,13217,2702,537,87
26,1f,80,vd,96,121,55,21125,20649,20129,19633,19133,18661,18165,17669,17173,16649,16177,15685,15189,14693,14177,2770,537,90
26,1f,80,vd,98,121,57,22141,21621,21125,20649,20129,19633,19133,18661,18165,17669,17173,16649,16177,15685,15189,2770,537,90
26,1f,80,vd,99,121,59,23133,22613,22141,21621,21125,20649,20129,19633,19133,18661,18165,17669,17173,16649,16177,2837,537,92
26,1f,80,vd,100,121,61,24133,23633,23133,22613,22141,21621,21125,20649,20129,19633,19133,18661,18165,17669,17173,2837,537,92
26,1f,80,vd,100,121,63,25129,24629,24133,23633,23133,22613,22141,21621,21125,20649,20129,19633,19133,18661,18165,2904,537,95
26,1f,80,vd,98,121,65,26125,25629,25129,24629,24133,23633,23133,22613,22141,21621,21125,20649,20129,19633,19133,2904,537,95
26,1f,80,vd,100,120,67,27129,26621,26125,25629,25129,24629,24133,23633,23133,22613,22141,21621,21125,20649,20129,2957,406,97
26,1f,80,vd,100,120,69,28125,27629,27129,26621,26125,25629,25129,24629,24133,23633,23133,22613,22141,21621,21125,2957,406,97
26,1f,80,vd,99,121,71,29117,28625,28125,27629,27129,26621,26125,25629,25129,24629,24133,23633,23133,22613,22141,3024,537,99
26,1f,80,vd,98,120,73,30117,29621,29117,28625,28125,27629,27129,26621,26125,25629,25129,24629,24133,23633,23133,3024,537,99
26,1f,80,vd,98,120,75,31113,30617,30117,29621,29117,28625,28125,27629,27129,26621,26125,25629,25129,24629,24133,3091,537,102
